9.350591898746433983e-02
3.294307776174210112e-02
1.034733859666755323e-01
1.304890417177043127e-01
5.157190183479176682e-02
4.733206436922083454e-02
4.180101019113897226e-02
4.252960741995966826e-02
7.124344180957910277e-02
5.429920884735830316e-02
1.084671246957628760e-01
3.700563462718927527e-02
6.839448107747782279e-02
1.324517991529720884e-01
8.392631747260692610e-02
1.213579779435039196e-01
8.459848525923698015e-02
7.775351967217869475e-02
1.085857306480378370e-01
6.121533985443474574e-02
8.402182033896972435e-02
5.916398271443974732e-02
1.029184439785604810e-01
5.306863083385100766e-02
4.786356483255978927e-02
7.591840364327767654e-02
6.525796809003610310e-02
7.819160762839012790e-02
1.462867209202981245e-01
7.688863472247818576e-02
1.142253954361684837e-01
3.684097514417893765e-02
1.210429016698498922e-01
5.548840770079201817e-02
2.239470666212040745e-02
1.091605585676512502e-01
7.140823513927786748e-02
4.811767400642787823e-02
1.220346081809230571e-01
2.763163180861582732e-02
1.182795392115358196e-01
3.903541086352155937e-02
4.724719775174494873e-02
3.963650649426543604e-02
4.514934126920359947e-02
9.889263206537303452e-02
9.620022946133149899e-02
7.531716559390530530e-02
5.401621944769798705e-02
1.022480402718077552e-01
2.385478194806231814e-02
4.573750812586070691e-02
8.400724356366143231e-02
5.913693881837161354e-02
3.826856766653996544e-02
1.042896493791406753e-01
4.754350664215294120e-02
4.127882108058392868e-02
7.896896990984222930e-02
1.044488435972855817e-01
8.234397291270664776e-02
1.218833727891908691e-01
9.486122970522065101e-02
5.296345790250889946e-02
7.141583879663915280e-02
6.766314747441680433e-02
1.072493946457796082e-01
4.782893061734116297e-02
1.246875457948786875e-01
5.681426750638247924e-02
8.302369744796982143e-02
9.804485827257507224e-02
9.058050451433770356e-02
7.575400796129094783e-02
8.085201439155798031e-02
6.165338532911424085e-02
4.289709326087755986e-02
7.820894886217243103e-02
6.892541562175429071e-02
1.220799334296142485e-01
7.165657853487812645e-02
1.097414455601781191e-01
9.359533318538988678e-02
4.115292814510891628e-02
6.217541592075416512e-02
9.459367623029932282e-02
4.839377623015596319e-02
5.844987619001364848e-02
5.661489959867518906e-02
1.013826975309584377e-01
6.016730343656491453e-02
1.097026596233629386e-01
9.453121913043607827e-02
6.869312261088036942e-02
5.482635875648332602e-02
5.787267371456518428e-02
2.733961149708154237e-02
1.298694954347031361e-01
3.739136562667438879e-02
9.759694416958233920e-02
5.049507928326076034e-02
1.057924145530595855e-01
8.392943655157934779e-02
8.990596712918869082e-02
6.170003711584588074e-02
8.193533155780922256e-03
5.152449194919029446e-02
1.091529373524040419e-01
5.099139643831226282e-02
1.139544719201064926e-01
1.025706842077325764e-01
9.572592225638520969e-02
3.108032794668825344e-02
7.145945193070324386e-02
1.008262523952568324e-01
8.972537577117553620e-02
7.330202759239787258e-02
6.716516649903875313e-02
9.067080031953257679e-02
3.876999099953178096e-02
1.178414851628347554e-01
1.122879506368025249e-01
4.267521397543351525e-02
9.467599818553637525e-02
4.152339263813048520e-02
7.401311338431031117e-02
7.853929587618914410e-02
9.443774233019815167e-02
3.633319671068101220e-02
4.099170794972036708e-02
1.119581182464366442e-01
1.204632949328613145e-01
9.793847861587438863e-02
4.526630700672148316e-02
1.833284588039821306e-02
1.033625678525157687e-01
1.360403472854777585e-01
7.563062394206242212e-02
7.983106423335130375e-02
5.691208908028240476e-02
8.055318223306237591e-02
8.330602880803147925e-02
1.105630350726955202e-01
1.228914739165570813e-01
5.346658611418578233e-02
9.365949254373544253e-02
-7.819325557196191157e-02
9.268935527510614725e-02
8.451875399669505073e-01
1.066297688008441158e+00
-5.548235069925708807e-01
-3.872028422196276409e-01
-1.839337092817623365e-01
-2.396958770109941517e-01
2.922868884990034721e-03
8.796428235286332109e-01
4.984990747876046902e-01
-4.420365053984814940e-01
-3.246976117785176918e-01
1.066924157247230553e+00
2.562105797438168353e-01
-8.261224498863103394e-01
6.192392404745946655e-01
-5.926256589114318185e-01
1.075383570056377858e+00
7.463962102396536347e-01
-5.996601652102397928e-01
8.785188163918566939e-02
-9.083193637281002097e-02
-1.542060665571905742e-01
2.071603454218252094e-01
-3.807500377417585846e-02
2.589353396009567709e-01
-1.450257389440118283e-01
-8.301365367895423564e-01
9.846158866747745098e-01
-1.052555581077526670e-01
9.395988490750343258e-01
-3.670771749622516733e-01
-8.807754770519532483e-01
-6.831839331286361228e-01
1.236903724357773238e-01
1.065536018392208906e+00
-2.887814089029165920e-01
-6.458185686877265796e-01
-7.174982312405535634e-01
-1.679721643680811560e-01
2.905802661564915179e-01
-3.064712646026759857e-01
-6.663961582634208014e-01
-8.153970670480048533e-01
-5.497189296151741011e-01
-6.433241948641579278e-01
9.641496664096761426e-01
2.861610606040633220e-01
4.476423719344057028e-01
-3.445321536767979587e-01
7.419677247838744050e-01
9.066099521153082874e-02
-2.181060945770842419e-01
2.742589166539426970e-01
5.052604973558846302e-01
3.852961863227966632e-01
-7.134629830065214451e-01
9.781365049916940224e-01
6.272808813394744609e-01
-4.991585594979340845e-01
-2.034945195310132460e-03
9.850004026469316720e-01
6.723371542162833725e-01
4.805708179053359563e-01
-4.954019286519532050e-01
4.477174680146245866e-01
1.038148798987937660e+00
5.830749113915558723e-01
-4.419895033332034706e-01
9.625606093298230137e-01
5.155445635777661240e-01
2.332365629792900463e-01
-2.136703044089615366e-01
-1.027294709446581467e-01
6.794854321475602976e-01
4.480457107061442956e-01
-7.597709177059674968e-01
5.242221927194372633e-01
6.668653501104303549e-01
-1.047109714306243777e+00
1.069159962433320482e-01
-4.651068831264120601e-02
3.167584954567299604e-01
1.919711696226200082e-01
2.016409867983021131e-01
-4.750487456612408899e-01
-6.951622080001118587e-01
-3.522304058961744921e-02
-7.888919796502518178e-01
7.397350689456515527e-01
2.953376220898119575e-01
5.130604958134735716e-01
-6.995733193517159054e-02
1.223162616638737044e+00
-7.592916746715480114e-01
-8.990152242248014014e-01
7.533580925141720730e-01
3.576442600346213530e-01
-3.851100371096368713e-01
1.084440376392553862e+00
-1.711327661911627995e-01
3.386235964880929816e-01
3.834070102889040044e-01
5.652717071970646545e-01
-8.643807927371910393e-01
2.209871426440240538e-01
-9.357253810952026463e-02
4.204228789530082278e-01
2.081078866796589322e-01
-6.715955540698038684e-01
-6.297536490544640708e-01
4.207624842087266392e-01
7.267924069165991874e-01
9.189845339806531621e-01
-7.123048665494113862e-01
4.934765921500706698e-01
-6.931068645595493960e-01
-5.140630274079693862e-01
9.563598416486907006e-01
-4.571383405661466059e-01
-8.023101965480048392e-01
-5.830491669530314391e-01
2.220341863190403997e-01
1.944224247710471531e-01
5.217905113608342083e-01
7.837013354824357014e-02
3.576795713476944166e-02
8.606909299454410522e-01
8.191384125343642575e-01
7.220791685365850476e-01
-6.684993484326742785e-02
-9.181706681818604388e-01
-4.656323135595310525e-01
8.816038887410095892e-01
-1.824613964690465218e-01
8.358618878500099214e-01
8.313998972389501363e-01
-3.047975009709173455e-01
-2.926254405270959924e-01
-5.540217788946921740e-01
1.470648486898070151e-01
8.067255774167800819e-01
4.984793044040661814e-01
-6.342136829599754888e-01
1.077080412706656401e-02
-2.148607456659091808e-01
5.657675908245280993e-01
8.298184356133424533e-01
8.838701924484509975e-01
-6.095618307532577607e-01
-6.387663009309215711e-01
-1.678925029158473692e-01
-5.512594512801635149e-01
-3.620545237778892145e-01
-7.952307421885754235e-02
5.495184111211668387e-01
-5.618909820605153538e-01
-8.549456507507592340e-01
-6.760052815182597818e-01
2.198437594485284918e-01
-9.427632630901422450e-01
7.682616271961341392e-02
1.097036673334838563e-01
-8.625864575141484192e-01
-7.420491685097101442e-01
6.707273686315265993e-01
2.614945594053716404e-01
-5.271967175282139539e-01
-1.358551025235250620e-01
-5.820253053964677958e-01
-6.279549951059271162e-01
7.189554323609516073e-01
9.931271996698650684e-01
8.135588808128376703e-01
2.883207157636452633e-01
-3.705248555380840081e-01
-1.140636767141763458e-01
3.067411886386663122e-02
-4.303522416411562079e-01
-2.593138607654354444e-01
-6.508185879212834146e-02
5.501693611607718637e-01
-7.681751212506184034e-02
-6.962207125675741182e-01
-8.194772702629314898e-01
-5.812185090099754037e-01
-6.961599189567898582e-01
-2.464032452833150311e-01
3.809279074397485809e-01
9.299786996659267779e-02
6.343039382106755442e-01
-1.452676986216339672e-01
-4.029566375591203120e-01
1.972391562035216428e-01
-2.907853166053810390e-01
1.327926451457850376e-01
6.965838177512952978e-01
-4.754340862140411517e-01
2.487665691752108110e-01
3.793343355431050279e-01
9.811258586051790909e-02
4.881563398960613864e-01
1.868280759764276433e-01
7.988073186601081233e-01
4.007163010724946184e-01
-7.311603216667944549e-02
1.091515733385912124e-01
-5.984339803229408172e-01
2.028350122480454265e-01
5.904614384196738008e-01
-8.853222010079292437e-02
1.758714947282063734e-01
-1.366851966778237504e-01
1.371786975809024534e-01
1.531484196167252898e-01
1.022492519402823596e+00
1.045276926678073925e+00
5.131606242154139741e-01
-5.803455794015937030e-01
-6.655659750788139872e-01
8.576438456171341096e-02
-8.017870753483383739e-01
-4.240477210705797528e-01
-9.340286569657767490e-01
-8.927335479604977531e-01
-9.901270875255417936e-01
4.031807624911451504e-01
4.626955858889288953e-01
3.762212926826767889e-01
-4.346430116831941914e-01
-7.919300652984649913e-01
9.593417744407978232e-01
1.368758251115992086e-01
-7.511648962943220931e-02
1.119646924866841697e+00
7.809909565183550950e-02
-8.906349670074259484e-01
-3.973420726485443200e-01
2.572604153973482299e-01
7.506262582838759689e-01
-1.812252836346891355e-02
-8.527658087350820093e-01
5.072657212395168536e-01
1.375855273362149717e-02
-1.289425269734714719e-01
-6.560533299796548201e-01
-3.729732861412820566e-01
2.264354112924163998e-01
5.842109188825964639e-01
3.076265502671785002e-01
-2.672646865718509290e-01
2.334568647764211913e-01
-4.649776067846864702e-01
-1.196282337553617944e-02
-3.059068873264431110e-05
-1.637864099402447093e-01
3.994205565057785956e-02
7.936727945510679838e-02
1.007620156280998186e-01
8.977001173786088029e-02
9.652195583361314335e-02
1.195218512782612041e-01
1.130734892347783349e-01
6.967037337153557386e-02
3.458640175830184765e-02
7.255539330510304974e-02
4.066618117222448037e-02
5.869710364683589782e-02
7.759601209103647590e-02
5.785208220750928665e-02
1.067953849741653388e-01
9.132084014256627857e-02
9.065183512264646248e-02
1.166764555264201142e-01
6.118317877046049874e-02
1.211490008457837830e-01
6.498058213823587614e-02
6.622842205233131496e-02
9.192967589523594329e-02
1.178508848539645687e-01
4.367337172838375164e-02
7.064790877431866012e-02
1.023880382653049870e-01
1.009656476769923150e-01
8.531239645713768749e-02
7.188390649476357475e-02
7.622616695287875999e-02
1.132323580310111988e-01
6.535679710979092061e-02
4.452522504845952966e-02
8.171060176546263154e-02
6.007089105270337070e-02
8.618959711730937723e-02
5.007739715238452433e-02
9.306625352988744104e-02
5.474789836314213759e-02
4.939581173623747157e-02
5.067020897056834228e-02
7.627697878492308015e-02
1.032029248439381153e-01
7.508991823742443283e-02
7.316866639803551453e-02
2.481169941292125924e-02
1.134553471494167964e-01
5.481990813479997726e-02
1.131450977280097636e-01
3.678843247782887654e-02
5.496506604514153627e-02
9.341147857198714433e-02
8.403799891825519675e-02
1.309474833728310750e-01
6.789066218069784997e-02
7.374790870742185811e-02
5.985402067333178006e-02
3.600008809783685620e-02
8.949968533020566386e-02
6.156761972731515653e-02
6.107764854503889423e-02
7.642823459807940312e-02
7.376511954844970631e-02
6.452034119907487653e-02
1.099236595283045043e-01
8.351463314131922500e-02
4.924102209418248360e-02
1.346954626551146172e-01
1.103959266207448914e-01
7.940607286959748545e-02
1.262573221535600032e-01
7.798641721704004104e-02
7.155994990471661876e-02
3.251446953604258255e-02
5.873881662760216393e-02
4.373394729634919043e-02
7.175597803071438741e-02
7.187060427503443039e-02
7.167329734332274216e-02
5.107740695395276975e-02
1.065319912598733931e-01
9.892213930198838490e-02
7.529744926303505448e-02
2.956732871478048863e-02
6.225127844830156271e-02
7.985706551758195437e-02
4.731047242782988188e-02
8.204573564252543028e-02
3.932370443798052784e-02
5.492943461838107472e-02
7.337934566474504927e-02
9.251956908658059975e-02
1.095656913573063995e-01
1.110339693564571933e-01
9.044373582621546837e-02
4.493697285229996535e-02
3.561185103980606809e-02
9.923579727713205401e-02
7.808055190784307653e-02
3.740190445032048200e-02
8.148818125820127267e-02
6.000961525167062410e-02
1.253339431657218284e-01
6.999023732645676121e-02
9.809495179057453607e-02
4.121443122814464483e-02
5.054909209505711876e-02
9.830037704348362770e-02
3.655886492725599762e-02
6.170602939083752458e-02
3.420462710900713799e-02
9.422323446287050874e-02
7.046845937881117405e-02
1.059578847042528527e-01
1.049620477080159264e-01
1.315727071538920767e-01
5.014769332859835699e-02
1.168587127000202674e-01
1.004255037187955779e-01
5.724507800467705521e-02
4.963213168678268922e-02
7.987037951648967571e-02
3.769052845245995931e-02
1.244556208433606342e-01
1.129200647711940952e-01
4.710225910294007362e-02
6.484180263841980707e-02
7.790911567923881897e-02
9.523605437781111627e-02
6.708162156282725108e-02
9.132526158058602850e-02
4.892057529871028654e-02
6.482309682215117719e-02
3.526186751743076025e-02
8.795395765404614985e-02
3.197279749076906152e-02
7.343345553634494927e-02
5.774767546215994057e-02
3.452869136823959878e-02
5.168713063879550040e-02
6.405846892202625431e-02
1.192869124211310139e-01
6.695852501809677892e-02
9.330184538801193639e-02
1.581998957495388825e-01
7.011130445461851712e-01
7.309437145609801734e-01
-1.425658162818576324e-01
8.419891804288791581e-01
7.193546402753001612e-01
9.625469173231629982e-01
7.574772159619790335e-01
-7.181921869192011698e-01
-8.977087683647134719e-01
-3.600646729404105573e-01
1.125199012504758400e-01
-2.184849961144863517e-02
-4.313571156249782490e-01
8.285874446891746681e-01
-1.872239302348719658e-01
1.036548756116534742e+00
5.459155992078333908e-01
-3.394867372286849427e-01
-1.077658736162871334e+00
4.427490206939657114e-01
-3.630936811724304603e-01
3.724400261462154083e-01
4.595719198590995647e-01
2.979445596152018871e-01
-5.731721939402111277e-01
-5.773232684776969936e-01
9.855472254478011562e-01
4.922642070090402777e-01
-5.431458886680018416e-01
-7.340331090953043924e-01
4.377009082990838129e-01
4.935454781462746965e-01
-3.430504808840002806e-04
-3.313249742183305702e-01
-4.106041529900389397e-01
4.248609314840745554e-01
8.337912674103588329e-02
4.097703750385456867e-01
7.554926885744992493e-01
6.702048426058939690e-01
-7.101650614966940056e-01
5.476652327265141285e-01
4.482175224373714517e-01
7.577795030582382685e-01
2.998428628344987357e-01
6.015120079039352197e-01
6.144020096473641335e-01
2.910887791881562880e-01
-7.865545528666595398e-01
-8.211252261065412617e-01
7.773246728159663999e-01
-1.034066009391949148e+00
5.552904451349770509e-01
5.649217943758144678e-01
8.023760588106887415e-01
6.361554298666476370e-01
-7.750482621558650864e-01
3.780568778247482276e-01
-8.914688182244875914e-02
-8.703373586319961275e-01
3.663907496217938542e-02
7.469361822882596424e-01
4.929848776139988398e-01
6.501279438491283091e-01
-8.487831235379490469e-01
-1.975124070606598392e-01
-1.025553806203819002e-01
-1.014910723814710591e+00
2.108266832086772291e-01
5.780512138848366011e-01
-5.321096409159984386e-01
3.069631207029543396e-01
-5.371402773367188743e-01
-5.821312646851322103e-01
-2.054848105635366795e-01
-6.481665217469522178e-01
-2.199749106068775995e-01
3.902017182101285564e-01
5.054497019999237839e-01
9.046276636258353543e-01
3.616946342019876082e-01
-8.586899067778477335e-01
-3.984877398544506288e-01
4.072254083631958732e-01
5.632718894425732259e-01
7.578279286420438465e-01
-9.869484374261530135e-01
8.112543699328764735e-01
-3.157822082693399479e-01
9.325802311100759301e-01
4.406819432375723433e-02
-3.800803830795388971e-01
2.234942096171129156e-01
1.951854327834904312e-01
8.505270576879164768e-01
-4.970818621890922273e-01
-8.085807012367556001e-02
5.487997614547677205e-01
9.628912220889076015e-03
-2.154944085898711781e-01
9.052479288309923933e-02
-4.280844566077448565e-01
-5.704329316510436954e-01
-6.755184810305833731e-03
7.853371698300311010e-01
-7.116609392862704997e-01
-9.605920351797000434e-01
-1.541909061830308847e-01
1.396051641844729074e+00
3.960074423661988363e-01
1.585166579163478917e-01
-1.736080485121263561e-01
1.001104480053929935e+00
8.207601656415310920e-01
9.622635719164376322e-01
7.283551866868871461e-01
7.768354078942714125e-01
1.276023469351623141e-01
1.068924508132221618e+00
-4.885283287590667239e-03
7.136153751793060662e-01
5.033618101313317439e-01
-1.699186612033050034e-02
-8.932672095675515678e-01
4.385431688896019309e-01
-2.395760039891060844e-01
4.509315277350012252e-01
5.164351582295965137e-01
-6.539182129534250043e-01
2.259427204005932110e-01
5.929304960137685709e-01
-5.715337457273702571e-01
-3.236377813943761006e-01
-2.766612568569179476e-01
-3.707239348702189297e-01
-3.101586725878726636e-01
-1.352653098078916982e-01
-2.265318146742843486e-01
-1.753759337537686425e-01
2.302462303770732577e-01
7.906014432288848148e-01
5.340538919377116889e-01
-9.924386305817120210e-03
-3.390250241519546792e-01
-6.584019370730712084e-02
-6.160714817253595821e-03
9.244588639098458849e-01
6.780614070429982765e-02
-3.530260654166935130e-01
1.165249901033505731e-01
2.477441223907392021e-01
-9.828404992002354179e-01
-4.726717028061619974e-01
-6.469462500738657473e-01
-7.526922040363398514e-01
-4.339232425981915386e-01
1.845130717321060709e-01
1.032093730383213614e+00
2.883499417021408440e-01
-7.831852652115858793e-02
-2.275133095741963263e-01
-7.348405447505182431e-02
-4.457832951740692828e-01
7.017062090604088143e-01
2.010931000070307062e-01
7.643375949244197720e-01
-3.510278640361791935e-01
7.865371147914240746e-01
-8.718735906526281498e-02
2.940653877751019385e-01
4.472960067914284465e-01
1.538302992768542932e-01
3.608011895392332358e-01
-2.988006568462635015e-01
3.889146325916652547e-01
8.454531386885700828e-01
-5.705319576361559397e-01
-1.724471404074823799e-01
8.609651587238837944e-01
-3.328637061368031058e-01
4.576540415543055990e-02
-1.352893154467819659e-01
-6.705332350287264154e-01
9.638981938827445584e-01
-5.512068833930352518e-01
-8.342340079702509348e-01
2.501853315113571341e-01
-5.971297443807566108e-02
-5.270972530717940030e-01
5.628680596771783451e-01
1.844156321295546408e-01
-2.050964146120544951e-01
-8.463704388749188068e-01
7.688374880793433785e-01
2.875477900203319837e-01
-6.950034744057481673e-01
-1.634932119487621238e-01
8.801407162478155355e-01
4.188619184035492493e-01
-7.613339854473141211e-01
3.616398282479996729e-01
-5.498490837296801104e-01
3.539995400547690241e-01
1.779424324428507259e-02
-2.279757544838890149e-01
-3.580687994836481147e-01
-5.955813312705335871e-01
5.422359040479770576e-01
1.014613207811682294e+00
-1.349292444779979228e-01
6.356642616874624840e-01
5.076523912353848589e-01
6.815197448865748520e-01
6.343476519285886628e-01
4.174517795326266323e-01
-5.700691949548447601e-03
-7.111210435151806841e-01
-2.428847813835816882e-01
8.434110675814718849e-01
7.328537144009052984e-01
-5.147086242646161658e-01
-5.439077653733142004e-01
8.940647155866324747e-01
7.157377322775254624e-01
-1.968918704240232020e-01
6.157982178590128974e-01
-1.678001033536700159e-01
7.551510203971718571e-01
-5.225239750910035674e-01
-5.459801357356955931e-01
-9.423985518938865491e-01
-4.664119027848617760e-01
-5.246331559058002858e-01
1.975142161365104621e-01
5.701042629964458985e-01
-2.621369657126078612e-01
1.954560266042858763e-01
6.262311384489097077e-02
2.384230495523089743e-01
-3.441444454494759775e-01
-7.867820161237749632e-01
6.720411788873575931e-01
-3.797541244911204483e-01
9.279957433722377247e-02
6.059198582245460818e-01
-8.081822716300443576e-02
-1.272088325890495808e-01
-1.142370237279290712e-01
6.159612406119798766e-01
8.923590721113651147e-01
6.653531333793921698e-01
4.049622530649313323e-02
1.486390336659199340e-01
-5.215537925666192676e-01
4.358161625559407448e-01
-5.395873649791838034e-01
1.250816173545667709e-01
9.043750666045494158e-02
1.387176252990217074e-01
9.368939392908808006e-02
8.796902813205917382e-02
1.153874209137678991e-01
4.375649374625350391e-02
7.535009270504613998e-02
1.352143838760125616e-01
6.230102805773234109e-02
5.735339935608158718e-02
6.632899346672561924e-02
7.837492057496371622e-02
7.458730107884484206e-02
1.043863046710439141e-01
3.519213621679819631e-02
7.931901766989039870e-02
1.768208895438292544e-02
7.666723259488758546e-02
1.283850286186722922e-01
5.545739118076312146e-02
6.315887431022122744e-02
5.042587654983728823e-02
6.585595835018670519e-02
8.162072799605092632e-02
4.717073967074575380e-02
9.150680683699891071e-02
1.225078082216628089e-01
7.322680279832007033e-02
8.530489887931411164e-02
9.476923213347751562e-02
3.178735048042587163e-02
6.893067360377334862e-02
4.752493881254806624e-02
5.942007106900132340e-02
4.264713681072000717e-02
8.840719490596979369e-02
1.057028663327741758e-01
8.754207569428643088e-02
7.016350017381894899e-02
5.925568892145606503e-02
8.867374368743426161e-02
7.022075155551187053e-02
7.215042195783212542e-02
5.501754175683659653e-02
4.916624754626210819e-02
3.002526662714150030e-02
4.311249764454841427e-02
1.406452106275273284e-01
2.821143776448180318e-02
1.242120969027638716e-01
7.339466086474667750e-02
8.326514695073997108e-02
5.332103297453901630e-02
1.156244836669387405e-01
1.205363244475970014e-01
1.119825710601067559e-01
9.147922265839651679e-02
9.390847005750506404e-02
3.720692172961061889e-02
5.158149773301074631e-02
9.363291044434357557e-02
1.165811089926155758e-01
5.123778707048710912e-02
5.485664905621039089e-02
8.308588899289337526e-02
7.682146564665608135e-02
1.130765756615542961e-01
6.798044285855807389e-02
7.796814203382103348e-02
5.508014415938243535e-02
6.295017687248863347e-02
5.627350881901245494e-02
6.432238795832821709e-02
2.410714466994718502e-02
5.185687801305637057e-02
2.081393776181130958e-02
1.011145924104942528e-01
4.189719092050835786e-02
9.218588354593755529e-02
7.571694089168953812e-02
7.050500070119661289e-02
6.406578243623203828e-02
6.606694218977667010e-02
1.066760706287121496e-01
5.867252999964783083e-02
4.227993710167175789e-02
8.641466372281618458e-02
9.057407709740725177e-02
7.363809853461825150e-02
5.879905893667512068e-02
8.898482069146559925e-02
6.547955781226150185e-02
8.512770898821023224e-02
5.484516426749858758e-02
7.691167868465542679e-02
3.758969374075368797e-02
8.031702448024527485e-02
8.866959975505363245e-02
4.814263908429192856e-02
1.029120329146972629e-01
6.348664727353797721e-02
1.184403715205532559e-01
8.547039085047464235e-02
7.659641815058768066e-02
1.067286442248346900e-01
1.060255069069617057e-01
6.298382439357444462e-02
9.204893134350415618e-02
8.619205585700009942e-02
2.946596779635592481e-02
1.305057647460259873e-01
4.670210927716611504e-02
8.073904283504207413e-02
4.838236990780558217e-02
3.869129639101703128e-02
1.058477844971896648e-01
5.476037661831389958e-02
8.001117268922688930e-02
6.702132075150299406e-02
3.468642778782419361e-02
1.265756958277417521e-01
7.995599452669301110e-02
8.971098345052230805e-02
1.149906388076546437e-01
1.083473336349836808e-01
9.273201686556838130e-02
6.034526902471514659e-02
6.912331208026657736e-02
8.286448491397463423e-02
5.995100446401627897e-02
1.075049037177790295e-01
4.026823022018050785e-02
5.569087086542362508e-02
1.081505448580600826e-01
8.936214794082981971e-02
1.139903248081113735e-01
1.059758781892776308e-01
3.532224735335358357e-02
4.223832229751976752e-02
9.512672351598619458e-02
9.055639217665684138e-02
8.033214170883934413e-02
6.844676312841074806e-02
9.381529322975207252e-02
6.761298270723645198e-02
7.855008172033696168e-01
7.192219551455109050e-02
-3.747496788395122680e-01
-3.991113030273471529e-01
1.712944373346742821e-01
4.937809846653227752e-01
-3.282545855288050429e-01
3.356659200956609301e-01
1.047989099080181008e+00
-6.276437463197604982e-01
2.819105814019667866e-01
8.040121529578200255e-01
-6.091295401912093510e-01
3.086481919349992609e-01
-1.289346673957341427e-01
-5.997564175090239758e-01
-4.087733241377437543e-01
-5.936934279300341011e-01
-4.125282167688961166e-01
-4.628280803538194488e-01
-7.878914618810510806e-01
2.567040203514452945e-01
8.335371313016958217e-01
-1.068507916284629211e-01
5.652011604289807201e-01
2.975873508400233014e-01
7.873772352345882464e-01
4.470715380803750305e-01
-5.246106866604433039e-01
-6.472947433464988354e-01
8.428900666118175344e-01
-5.045679612492456889e-02
-5.662500334956495074e-01
-9.449017895974143322e-01
1.002525999960170333e+00
1.377536404402664172e-02
1.962179909007041867e-01
-1.612690238741140425e-01
-4.701682178161452619e-01
-7.883294725950955595e-01
6.316114158580153626e-03
-2.127405711147643541e-01
5.672779382861541375e-01
3.855451537429199216e-01
-1.823109470981790770e-01
5.588539954406974708e-01
-7.232439165893775890e-01
9.700323846542940887e-01
6.206870920359695842e-02
2.012159950609989072e-04
8.341644477741146924e-01
-7.156313279173305286e-01
9.738799468161399853e-01
7.259816225791145827e-01
5.178996692366212296e-01
-9.447114443333952394e-02
5.458720360146868122e-01
-4.893267718992733162e-01
-5.287487540805717590e-01
1.072017979222194439e+00
7.193553030044613772e-01
6.100055387313872979e-01
7.883778831722145775e-01
3.989580364295593484e-01
5.332427326603429441e-01
1.060977963664090085e-01
4.572558448588143198e-01
3.009281868915645447e-02
4.737255367821010393e-02
-7.634722616127636793e-03
2.834724413166934132e-01
-8.473492006645109154e-01
-8.534142395792393421e-01
-2.253640051978304526e-01
-2.344006934253167473e-01
-1.015815725346400633e+00
-4.746235519175469597e-01
-3.144372629631110860e-01
-1.313450105550679481e-01
4.429757247159774591e-01
6.108379737086762074e-01
-1.190451480849299831e-01
2.117310088672100798e-01
6.816651990150193186e-01
-4.250626582788670782e-01
-5.870443551969375395e-01
-5.914652146862126036e-01
-9.048667153280961495e-01
4.361652324642287248e-01
-5.441175881296209660e-01
9.424075271859634340e-01
-7.485636325212323694e-01
-7.028754196689247780e-02
-9.169270224898848909e-01
5.522957984474565762e-01
-6.251870041072284112e-02
5.812152895683940779e-01
7.349479583338305311e-01
1.285756677589262320e-01
5.142058193533314281e-01
-3.962971305349334838e-01
-7.663632941758848904e-01
-4.379803933130349547e-01
5.043610549913267738e-01
1.051971743559946271e+00
6.046567769580310503e-02
2.409694065556426679e-02
-4.012688548963801449e-01
-5.019718455401468438e-01
2.600759939922284714e-01
1.137886870077904788e+00
-2.861277077999276330e-01
-4.855736119414824636e-01
6.202327736926153134e-01
-5.752560530429834396e-01
1.025565644536146737e+00
-6.205280356230609140e-01
-1.891832675771885630e-01
1.760884144370146176e-01
-6.623472497594816710e-01
3.253766217295148699e-01
6.171975372003747351e-01
-3.015860681125488996e-01
5.259998069675410060e-01
5.765249494754490917e-02
-4.075028213003741295e-01
9.947607820712077442e-02
1.117697640895701783e+00
1.777023015327790223e-01
5.366447232332651751e-01
-4.144792809020265700e-01
1.487434077351975081e-01
3.763709171339861270e-01
-6.569565824768198725e-01
-6.287086575405127498e-01
1.170038441160448750e+00
-8.445580431814985189e-01
-6.343834160248477128e-01
5.759824755524401985e-01
-5.056813992759828791e-02
-6.817616567822440965e-01
1.249342290056130844e+00
-1.787342918343025611e-01
7.498506743740587233e-01
-9.208465378011268521e-02
8.924014402632411969e-01
-3.116246583197203601e-01
1.030168454529367006e+00
-6.866771251877868965e-01
1.727511475275738118e-01
-2.402778841001483312e-01
3.201975034826280986e-01
1.545441099934323215e-01
-7.296507849943600910e-02
-7.547633007208195410e-01
4.101779963711241206e-02
-1.070840256969413540e+00
-6.892785782971387887e-01
-2.960135220111912435e-01
9.023607404562976608e-01
1.907132571506320040e-01
6.298492948732975494e-01
4.370840526420069483e-01
8.545384980711316913e-01
7.878977664856924301e-01
8.436401538658256927e-01
-4.821178715487445254e-01
6.193483827169034006e-01
-5.006589461502710670e-01
-4.807334552970402020e-01
-6.984461567041945207e-01
2.878229051850924036e-01
5.011623558117355159e-01
-9.205147562139393003e-01
1.580778416396718886e-02
-9.069896689958309999e-01
-1.002609795540870957e-01
3.485578387822741986e-01
-2.777586519755330108e-01
1.024981943310854460e+00
7.629276838715003395e-01
-5.087382066853354257e-01
-9.842722351841030892e-02
7.950799424612887689e-01
9.292159865816241870e-01
-1.526142146727065829e-01
-3.092760020655606623e-01
-4.377590183214385977e-01
9.297525350667266153e-01
-1.717227362311185002e-01
3.374114951459044054e-01
5.902564163387330476e-01
-2.168643388545405393e-01
-2.602151856753193715e-01
-7.289109954632529975e-01
-6.124247370485116360e-01
-3.123168135272076928e-01
6.606995128817891305e-02
-2.486978344319244194e-01
-6.117083821555739931e-01
6.692328384868576618e-01
-5.207940733684321977e-01
1.014056179590078210e+00
3.514269237034434168e-01
-1.699290503225169557e-01
1.119528755024314925e+00
-1.052446590631646167e-01
-2.733203851917042626e-01
4.567234630726761391e-01
-8.344900121149646521e-01
3.566145022153888178e-01
5.004637210797729940e-01
-2.950592903270735090e-02
-2.035282428887495998e-01
2.257722987571272599e-01
8.293631355671667871e-01
3.873118760065182853e-01
5.141229502623960446e-02
4.493229670759754102e-01
-8.313874169468702391e-01
-2.670079340541738899e-01
2.290717733900219377e-01
-2.257071274051214160e-01
-6.348440893128992624e-02
-4.785325571695333013e-01
6.668447724459313219e-01
4.080075155095508332e-01
9.268720703811366146e-01
6.322292868084672390e-01
-1.373592598420427247e-01
-3.048900296777951047e-01
-5.014683729517675076e-02
-2.802701803756034171e-01
4.589727903706856127e-01
5.445623985432519465e-01
-3.370029239706885393e-01
-5.029232339054714451e-01
8.888304157045913145e-01
-2.390617315532996279e-01
-1.761859775022306951e-01
-9.944962614633865439e-01
6.997432375340341126e-01
2.895664753939768826e-02
4.913063982359844317e-01
5.167723830706142385e-01
6.074445788014763981e-01
7.489189384649651560e-01
2.317423537800563649e-01
-5.311795549531913574e-01
-7.388122944731098096e-01
9.509208672096622905e-01
6.916183225724157335e-01
-8.729357938830654140e-01
-5.342141442722472267e-01
-6.660457661776565397e-01
-3.973880107016365959e-01
1.064154511074826004e-01
1.097761765225584857e-01
5.769028305398703899e-02
3.868999664853453591e-02
6.800342801684701455e-02
5.215319357185724952e-02
1.027642985621842614e-01
1.088978784795751886e-01
4.886237728619573228e-02
4.792668405228324435e-02
7.339436613632033257e-02
1.110613987069302561e-01
5.515557177302758685e-02
6.807713794726090450e-02
1.021466626432102620e-01
7.428134370049321866e-02
1.131487714082464596e-01
4.554841732987120750e-02
6.623984407319598311e-02
9.557009983642433815e-02
9.686105206400645595e-02
6.956095503036802130e-02
2.110212289099765506e-02
3.060391600845170992e-02
3.211684012826540591e-02
4.423734681624130055e-02
7.173634684431744180e-02
5.900529319546796853e-02
8.009906773824428117e-02
8.557156311279039140e-02
6.196150680070606348e-02
8.063995021426174914e-02
8.681220212172625905e-02
1.027599359278979219e-01
6.221733225136401313e-02
1.019828296459279332e-01
8.154971108269835900e-02
4.375630925481387851e-02
8.159483793910148053e-02
6.299527893630244013e-02
5.074640548697249842e-02
7.019086829074004663e-02
3.027910617336611321e-02
1.189928679370821640e-01
6.030648666163116595e-02
6.217673261071006430e-02
1.120621133746357023e-01
7.731616045457945230e-02
9.360612393543997489e-02
2.428318316625030851e-02
1.170285130527494027e-01
2.624654407627227681e-02
3.853963485246494902e-02
5.311153051681927889e-02
8.796517854063259922e-02
8.471593955214515304e-02
4.847790349617474293e-02
6.874022790269064542e-02
9.938081376822008317e-02
4.420126181972852675e-02
8.061673698698651469e-02
4.175869135619697525e-02
1.201624488054421069e-01
8.326221500847146018e-02
4.796542041390431527e-02
1.007297461566063201e-01
9.452720031933146971e-02
1.135797251160245575e-01
2.648200784046234046e-02
1.001701275392773288e-01
1.089400272692961219e-01
6.988820932677071440e-02
4.775385627962604879e-02
8.861611562354604343e-02
1.006198332792319766e-01
7.793240841770401883e-02
8.145559085814013667e-02
7.994573731492347901e-02
1.040093036102633928e-01
4.950925126424818301e-02
4.572211256049739381e-02
9.983229183288200304e-02
3.359698293359530963e-02
1.224389155476554164e-01
9.894629090434912955e-02
3.860664854930073719e-02
6.266263091798711382e-02
8.497292085350924284e-02
6.974033244868950432e-02
8.642631205059046751e-02
1.004914935188805925e-01
6.815336023957645206e-02
1.138674853945382259e-01
7.537182799171406045e-02
5.190146616212271830e-02
1.169312923882451644e-01
1.412265761699925404e-01
9.247121975770900004e-02
6.475143020035768748e-02
1.048136167396688245e-01
8.203577382879211066e-02
9.934336949164776498e-02
9.195325946124195682e-02
4.319555063665683065e-02
9.743820470595397631e-02
4.008019085497726425e-02
7.103194970800741359e-02
9.851442990117041665e-02
1.230055098146516090e-01
8.369749571746924743e-02
5.872896751201589494e-02
4.676346111505154390e-02
4.562187838247584726e-02
1.059066466448738836e-01
1.281022362536441972e-01
6.636427319139986958e-02
7.039309557658783578e-02
7.957135905088849603e-02
6.720548154184502465e-02
3.421988092408122933e-02
1.194939044188442490e-01
1.169598318055677932e-01
6.073821874146748123e-02
7.167361024457945262e-02
3.260756460739098334e-02
7.646101834820610843e-02
3.945943754775730478e-02
1.089249183594169501e-01
7.552666384415626655e-02
9.311049771884444270e-02
9.768841459470659072e-02
5.715863429193195761e-02
5.713909545846527355e-02
5.862497211485602489e-02
8.551262567023554251e-02
3.708357370451190876e-02
6.556144847822321930e-02
1.119522319023526225e-01
3.300559973497231570e-02
1.120621616837410295e-01
9.374782153314650812e-02
7.374242346510880008e-02
8.466007942369600803e-02
8.892874969093386706e-02
5.794084123804797010e-02
1.375559201903593654e-01
5.686005207461373168e-01
7.687266704772449666e-01
-7.590481715990408107e-01
-2.763646379504668960e-01
2.262531090849739246e-01
-3.318490676176906740e-01
-6.241997926368899607e-01
4.959466883135509874e-01
1.886687830991878867e-01
3.680214147009389647e-01
-3.753503000183841531e-01
5.732218220632313566e-01
-1.140641669412334469e-01
-3.438376423960975981e-01
5.058256229297608542e-01
2.056908427826956154e-01
3.841142071824026338e-01
3.896894397167917079e-01
7.164611890064384592e-02
1.009695686432389605e+00
9.969922450547740178e-01
3.733813622805258747e-01
-8.549741058461082233e-01
1.004900639050397837e+00
1.995740720304538529e-01
-1.207508354467827921e-01
2.713318438525643694e-01
-3.955767002484457118e-01
-1.234676037514187835e-01
4.283740785476716079e-02
-3.779170145701444827e-01
-7.334495673275782668e-01
3.120868556679096129e-01
6.963942733957166897e-01
-5.297595361482263510e-01
2.692080985911016189e-01
4.598285449404879155e-01
5.985321112893279283e-01
2.188319394534830875e-01
-1.452768342673730062e-01
-4.060474062919975924e-01
-9.028784437884310732e-01
3.475174423791630995e-01
-1.197128790787927721e-01
-5.702531520848665991e-01
8.358675319353399136e-01
-4.540726128848733278e-01
2.029268921275765303e-01
9.048828309309733253e-01
3.328177550130737572e-01
1.163100258919712138e+00
2.293498837309591032e-01
4.264724083407906985e-01
-6.964424043965036781e-03
-5.575158377831119783e-01
-5.629031412054958938e-01
1.892906365780701039e-01
-8.317376149037388755e-01
-5.151006675085941788e-01
-7.162645485596608186e-02
-6.789844348909920280e-01
9.274242601311820378e-02
5.834037311599343800e-01
4.082536361499461419e-02
-6.289672347535457675e-01
-6.230014408632130740e-01
9.031838152200972747e-01
-9.419785493039324331e-01
2.176251804064321671e-01
-9.731469205784549770e-01
7.927308336497924657e-01
1.712655592514918945e-01
1.004391340286261869e+00
9.298895281820218628e-02
-5.310745339100855222e-01
9.248282094962680944e-01
-2.075677042363407165e-01
3.205147889566579145e-01
-9.942605762635089994e-02
4.116354489137555861e-01
-8.363209092182491977e-01
-1.612011736112674842e-01
-2.862013689576481945e-01
6.169074845596960177e-01
4.913655347644081961e-01
-3.609214668351201083e-01
5.707593254003878736e-01
2.604651016968417276e-01
5.425181981642002160e-01
-4.040952211900020741e-01
4.598647799342977516e-01
1.222245081683596690e-01
1.113083792707293962e-01
9.575488507496838775e-01
-2.078295076547663489e-01
-3.583794060802569792e-01
5.185484779014020162e-01
-1.928508167768565873e-01
-9.032610368605518136e-01
-7.768009192724409928e-01
1.098772715891451757e+00
7.866999132716216980e-01
-1.660333837900560827e-01
-8.514690406477878892e-02
6.696215550037056818e-01
-8.172565452255722285e-01
8.422465303664720959e-02
-8.251408651743264988e-01
-8.489997491802098173e-01
2.702414923415520365e-01
9.617066127539443121e-01
1.393159596921760557e-01
1.108543181558730772e+00
2.233703625954933658e-01
6.588782066848215546e-01
2.081377654516359255e-01
7.612320109302266324e-01
4.757010802699782603e-01
3.871550373812469026e-01
2.125807213819475711e-02
-1.002273909575671196e+00
7.461909251735951987e-01
1.022784537371105099e-02
-1.961632163911171123e-01
1.360291715928967637e-01
-3.132472443086051217e-01
8.033324756874197226e-01
5.379444082712014907e-01
8.456009898634226918e-01
3.194116266763998846e-01
-7.189551715482243033e-01
8.381088974343779974e-01
-3.253467724961165430e-01
-1.313148194442329275e-01
-7.748382527742682102e-01
6.763900785172488606e-01
-4.115004735412575720e-01
-3.882992796513995981e-01
-2.549210639007410406e-01
7.504954987029650582e-01
-3.061767690104660877e-01
1.205402030574266037e-01
-2.671761069388317034e-01
-3.044227810607156859e-01
-1.840830637233271949e-02
5.220667888846485249e-01
4.496101598997466753e-01
-4.310019504182356909e-01
-3.968122314892900265e-02
7.930173975173442358e-01
5.787767265671438510e-01
-5.331865517833950241e-01
4.092822227988628381e-01
3.730785930472802492e-01
-4.999163109985655939e-01
8.254867019335378198e-02
-2.795664372326882585e-01
-5.655679835357050322e-01
2.498854897627089400e-01
-1.892635116209798185e-01
-8.292796047551329597e-01
5.717113436688855410e-01
-7.522617488206837510e-01
-4.636172484891656342e-01
3.208934230947921296e-01
-2.635202967874439306e-01
1.021426794528458970e+00
-8.927504554625403932e-01
1.359186282634827492e-01
-7.446396833251858749e-02
6.807147843889253813e-02
1.354422064992019670e-02
-6.833773058597806260e-01
-2.572108173795438768e-01
-5.619320642892892126e-01
2.520958611885361633e-01
-1.077394149119119016e+00
1.004733039758919089e-01
9.225219854451306434e-01
5.359666510423847230e-01
9.451496803770289556e-01
-1.533993474843021176e-01
4.710555423688649324e-01
-2.396697927922278593e-01
-3.475386722259937722e-01
-4.943270909576450434e-01
-7.342981938981112400e-01
5.622164904762856352e-01
2.609721160502067594e-01
4.572627964347769081e-01
-9.895172686295465869e-01
-1.933030715577939984e-01
7.894835736334878673e-01
-5.407184712398210857e-01
7.782125142558637965e-01
-3.393614886283161658e-01
1.270553756199536699e-01
8.535048945340655280e-01
6.624813330554106816e-01
7.221312931719875428e-01
-4.671047346201788186e-01
3.828147469073929221e-01
-7.231523079208002081e-01
-8.587047192372441184e-01
-5.894865700994976754e-01
7.315455818262409649e-01
2.267333200120759673e-01
1.412638929728051718e-01
-1.694225845912483708e-01
9.064257983392953744e-01
2.443197347761076332e-01
-5.499593916145153472e-01
-5.870550961720356620e-01
-1.522763023154112549e-01
-6.906317994640082114e-01
-8.622470620108640960e-01
1.929774947789140438e-01
-5.846015067285301736e-01
8.791012100724300282e-01
1.364834930016665393e-01
5.347900059121127869e-01
-5.632019095329701130e-01
3.787245939783311088e-02
-3.034396017607229323e-01
-5.175335606765799623e-01
7.477700686931254559e-02
7.312132860546692870e-01
3.765012765980446097e-01
3.859253099539831644e-01
-3.260162406455475170e-01
4.629711836202059505e-01
-2.804475463056638890e-03
-1.875091264317969575e-01
-5.571834104007673538e-01
-9.723163854343006007e-02
7.187162989939906987e-01
-4.001363058561174801e-01
4.064356111765702328e-01
-2.949943760601905773e-01
7.298206373015973802e-02
-3.034432733447624542e-01
-5.577175394809250619e-01
5.840650781189113960e-01
-4.967269871975657503e-01
-1.705758382424666930e-01
-8.711544783055042984e-01
-8.362438105797113108e-01
-2.260655826035104510e-01
9.122033980545315446e-01
-2.890747792995120857e-01
-5.113938654131113815e-01
2.949870325043176325e-02
7.761714248405944538e-02
4.092249118689887388e-01
-7.435702905503475124e-01
-3.550526975587052492e-02
1.064438815521698695e-01
6.540225721436845885e-02
4.980563047401108390e-02
1.108838218388516761e-01
6.559047564232818595e-02
2.984980605010988802e-02
7.259686286742041139e-02
5.786119769358566423e-02
1.151402677867165852e-01
4.405818755038276580e-02
3.121194299359805052e-02
1.158804870895955158e-01
9.448309812855990031e-02
1.197021539044341998e-01
1.016034589857207071e-01
1.242783565312727823e-01
5.200392024065329105e-02
6.141321455796915768e-02
5.835874688129649018e-02
7.525549862389240008e-02
7.297597773407914212e-02
1.221973118195693181e-01
8.433446424144661058e-02
7.189418583762947901e-02
7.611329967032073873e-02
1.208241064178600249e-01
8.437565332023849729e-02
5.384000916954333887e-02
1.205085893501440797e-01
1.331511141841283663e-01
9.438355904326063694e-02
4.749421972224486532e-02
7.355062458882294374e-02
4.059063796581807715e-02
1.137065440514853365e-01
6.592341376447911905e-02
2.642262527212182674e-02
5.003102508072442001e-02
1.372620382585515719e-01
5.209492431150603703e-02
6.409945185382551203e-02
9.894012765775817009e-02
1.002397139383162938e-01
8.298846453655800426e-02
6.795293031427915298e-02
1.174890570454477784e-01
6.932531109939128744e-02
3.097715723019392811e-02
5.220792728439063723e-02
7.069673270280078803e-02
3.461277108973944555e-02
1.095679684668966758e-01
4.469816170184816306e-02
8.866807714904434423e-02
1.387662660868749231e-01
8.107261036538486454e-02
2.981136642303231984e-02
1.208268664448231833e-01
1.138943986434025751e-01
1.045011965938761889e-01
9.709265861660176800e-02
8.354304624922462286e-02
1.213778554479294780e-01
2.083711431227074085e-02
7.320330131576496813e-02
1.195093298195159248e-01
1.144431398456700333e-01
7.206905508690865381e-02
5.635280182207666466e-02
9.668622951735877935e-02
1.321240119505409372e-01
1.112267614813601257e-01
1.264324342020861913e-01
7.920318091952070760e-02
1.187475902298799069e-01
6.009570927585220629e-02
1.155139779627301910e-01
1.024934536075178537e-01
1.165336719374951008e-01
1.117867417547836473e-01
7.572405802985870960e-02
1.273072334358886226e-01
7.020028739849455690e-02
1.053997423306959474e-01
1.320227861350633213e-02
4.872714607327861824e-02
3.915043132927244207e-02
7.724597710111825999e-02
8.122065949357604175e-02
5.932187883831153974e-02
7.705691847855213050e-02
9.819450117054205618e-02
7.141103992808749135e-02
8.059809435562528823e-02
5.939486201751350419e-02
7.881793706834508417e-02
8.328681181368646769e-02
8.225940378890812810e-02
5.116655972760611459e-02
7.029453878067269679e-02
4.142675785874026795e-02
3.569192216722935629e-02
7.658676106376495485e-02
4.876952992796748654e-02
8.693608659824499096e-02
1.066829629474642938e-01
9.105851363831417300e-02
5.758856484668724990e-02
7.348818400415164931e-02
5.657374600017855970e-02
1.315239801301214262e-01
9.557252819495239138e-02
5.655913980330688068e-02
5.029780885577456173e-02
8.633310582629298569e-02
8.668961989788093181e-02
5.120772312326345166e-02
7.239550620131969538e-02
3.466377312855158793e-02
1.034205768819016769e-01
1.137470832262382769e-01
3.394043550999845810e-02
7.773380962569823027e-02
1.356499606791742862e-01
5.502602477672905584e-02
1.077669522780414224e-01
5.995087763015262416e-02
1.181193701023565690e-01
7.910393047524830190e-02
1.113774677903179300e-01
8.772199104590902574e-02
9.475616368222038177e-02
6.929760544534990796e-02
1.196029513071610040e-01
2.925168809308757376e-02
1.040303456084011452e-01
7.332120848306214467e-02
6.633624310667085577e-02
1.142723207274930625e-01
6.846819286269179017e-02
9.099285528136609458e-02
7.865231724458680851e-02
7.459881490571403095e-02
5.646011251446521328e-02
1.028296686469698101e-01
4.884377706855217577e-02
4.051888664157397568e-01
-5.351435463504014001e-01
2.691987927343938991e-01
3.646848939536626033e-01
8.925006756510516226e-01
-7.961258674970900229e-02
4.424424702087646488e-01
3.808048578911371607e-01
-9.854167816275993808e-01
1.297532735820904559e+00
5.975632192809461340e-01
1.774763788720555013e-01
5.119736395082014058e-01
4.265429421412982869e-01
-8.461291279613752936e-01
1.070913657485407899e+00
-4.079196338462589000e-01
8.781738046785473317e-01
1.852874274920355280e-01
3.286128549006638311e-01
-1.710908919744253548e-02
6.441948109349798779e-01
-4.150540706734583973e-01
5.646333607662934462e-01
-2.827952895158446500e-01
-4.206948383713087214e-01
1.955446676339575585e-01
1.110723050019960745e+00
1.495298945004870650e-01
1.064010925807728769e-01
-6.904220635544316975e-01
3.306113465553718878e-01
3.592722840251409422e-01
-7.693038065129302883e-01
3.756393828882899077e-01
-2.838581019486520196e-01
-6.634540722500810173e-01
4.527342672674956048e-01
7.308467316262090563e-01
2.825698593356733984e-02
6.254289282903607861e-01
-4.871843261692611615e-01
1.729156036099377125e-01
-3.492128722792136042e-01
-1.816969245119152698e-01
2.724288610531215293e-01
-8.988438200290262137e-02
-6.507345924073004717e-01
4.743743611353455902e-01
1.501473698229952025e-01
-8.736860232409486837e-01
7.922199106998313312e-01
1.617400945681645441e-01
-2.215025568073326345e-01
3.777755239783633923e-01
3.452806107398326829e-01
-4.743547241806430059e-01
6.585573334419204672e-01
3.478705507622860127e-01
3.104200186240592685e-01
-4.282151500683492595e-01
-1.733512639264980504e-01
3.419565704133284978e-01
-7.570528393423551217e-01
-6.003897275025518177e-01
-4.717412500636577466e-01
-1.340857815562976896e-01
-2.070802573859588103e-01
3.676178328772059523e-01
3.734677965847517100e-01
2.755839561828192785e-01
-6.470784540200564816e-01
-7.147441290957380622e-03
6.114341155681956019e-01
6.498956962881764499e-01
5.896795862647169484e-01
-5.167199386445652243e-01
1.103817733261263534e+00
-7.834477767157927985e-01
6.638008314874966898e-01
6.545853299087402988e-01
-6.171390498483844134e-01
8.191609536474482312e-01
1.219045222699169706e+00
-1.252693022782660481e-01
2.031415728574954283e-01
6.752972988856905667e-01
-2.258398280553189363e-01
1.459358643339212502e-01
7.403877511101782938e-01
-1.167044852301634683e-01
-4.526148947591931981e-01
-8.625949324155954834e-01
-4.571470422876194872e-01
-3.043382176010428486e-01
-4.905871302544679846e-01
-1.521876370797553002e-01
-1.840176765127157082e-02
3.482142970839561258e-01
-9.550515246915421974e-01
1.686288780486993599e-01
8.371449851221922644e-01
-6.347449846324582090e-01
-4.409059586369535322e-01
-8.637199831910713499e-02
-1.060826855390388568e+00
-7.612194692755150371e-02
-2.040786980927727368e-01
2.715751984573421263e-01
-5.079400658665577106e-01
4.143090854722151217e-01
-7.691175023513899811e-01
1.157480617833461345e+00
-3.375617414564445751e-01
-2.332249485714480430e-01
2.097011735127333742e-01
9.484951234543393950e-01
-6.058415601514651749e-01
6.216031199005488395e-01
-3.215006754422632396e-01
7.942122466116543489e-01
-1.524570554211387985e-01
-2.053734036971703036e-01
-6.391624605446376284e-02
4.525467002337708600e-01
4.608540968170452556e-01
4.383243728918613802e-01
-3.339192037664730495e-01
2.635334377865265476e-01
-1.601869203778189671e-02
6.199972712651816709e-01
-7.040390910109666223e-01
1.535149145441979390e-01
7.505659102065636024e-01
6.842378820818737495e-01
4.699905520030336348e-01
-4.839473486481637443e-01
-1.014164161655325969e-04
-7.238489770789821032e-01
-3.564719753305160554e-01
5.762107794882397327e-01
-1.049311530437729179e+00
2.593597539257145868e-01
1.079105801164308875e+00
-6.725369307575562727e-01
-4.828249666537040574e-01
3.933725670464282009e-01
-4.601506494730726871e-02
7.561999671771448828e-01
8.014955586144363320e-01
-5.196019504933877542e-01
1.535205357800720725e-02
-3.941784167037508217e-03
-1.011174288047787112e-01
9.294519057408391349e-01
9.090132298173940750e-01
-2.204981704965152667e-01
-5.709798928032872034e-01
1.527243180734453448e-02
-1.042695861613351926e-01
1.036320140179716465e-01
-1.491577981819057208e-01
4.577153898357876338e-01
4.732707288323232397e-01
-2.979407054823819401e-01
5.630392064451913425e-01
-3.110331281794224134e-01
6.276166729712073789e-01
6.004383487822256837e-01
1.948303182091689068e-01
7.611306923679981296e-01
4.439000384622399098e-01
1.429750347799895183e-01
-6.894229117338607216e-01
-4.410243819845993118e-01
6.272658641604014207e-01
1.893672857522737951e-02
-2.586720466125159157e-01
3.022929204399187331e-01
3.569795777227269817e-01
7.143578364222921695e-02
-1.384573114579892572e-01
-1.982922468104884872e-01
-2.448517231815979800e-01
8.953239449959928820e-01
-8.249993076240400014e-02
8.163924738809305026e-01
-8.538992713363751097e-01
-6.884417925078554212e-01
1.464820916536038187e-01
4.593312967287281889e-01
-7.002111501673872196e-01
-3.385398936663887581e-01
1.033914548843284820e+00
1.414361801275864083e-01
4.443501584137306559e-01
7.575059485832238426e-01
-9.242082715334007936e-01
-1.945245236041554526e-01
-3.533510260138829073e-01
3.740989166526628718e-02
3.587566034423883554e-01
-6.946904911113704895e-01
-2.192660500193263640e-01
3.941680959789570782e-01
-4.762751667490315866e-01
3.250921374598286090e-02
8.032267246298940844e-01
-5.127089657260988642e-02
7.010963179504905440e-01
-3.506817403876633099e-01
-4.449889344553312198e-01
-8.690319949172900515e-02
-1.559893079404063299e-01
9.689943578031684490e-03
1.164039891960092277e+00
-5.378282578449208318e-01
5.933842394135190323e-01
6.237357920132098332e-01
-7.649543059108423471e-01
3.734819128998861926e-01
-2.952841773765153555e-01
-1.736949370212169108e-01
-6.339457683337726968e-01
3.695335164467629663e-01
4.852737745885145060e-01
-7.831416251327193434e-01
3.674360486424446126e-01
-8.103440400387142972e-01
-7.019733996114193575e-01
8.220097637658465572e-01
-5.960499611571802303e-01
1.757464805203975966e-02
5.331171464307082886e-01
2.201206768725653684e-01
2.822150462771021440e-01
4.994553495468116444e-01
-6.916080932503798628e-02
-1.462508770601917141e-01
5.904510997848699816e-02
5.288058092534311250e-01
7.789310825663340321e-01
4.557158333054779908e-01
3.000802828134248590e-01
1.246750962520837280e-01
-2.597482146635188283e-02
-5.792898437952886947e-01
-1.819062415283889955e-01
-1.735956931258336167e-01
4.718411323501803811e-01
-5.110264544238876105e-01
-2.635194051958599237e-01
-5.845965829607874253e-01
5.532506613059751110e-01
3.068881188096296286e-01
-8.027835869810605596e-01
4.458949324185838836e-02
8.316996650462238350e-02
7.315304451555315612e-02
1.004471767071663663e-01
6.079271492783887981e-02
4.359236865570190189e-02
6.117952047875493959e-02
5.974637369433938305e-02
1.041481169119509165e-01
8.579091132994040581e-02
3.096900181823994055e-02
6.274968695721494516e-02
1.026187345386224692e-01
1.034938054307689009e-01
1.136056321624072385e-01
3.778611494571250395e-02
7.745738805335389277e-02
8.809396130905480793e-02
9.113701653178644946e-02
8.879691590172317239e-02
9.458891509840407219e-02
1.108362200726693836e-01
7.604689024080663051e-02
1.340196924885441454e-01
8.480524677466759476e-02
8.079436699410866285e-02
1.085805036204350454e-01
7.088944249344347748e-02
1.082870841704848264e-01
4.122555837873995849e-02
4.234837199524880968e-02
6.522121499217596596e-02
9.832675442187460702e-02
5.557708343812901852e-02
9.728372161272268170e-02
6.768342711762503905e-02
4.827117360382058436e-02
1.202767234517940209e-01
9.037232722448530764e-02
8.849901534135588832e-02
4.811331138002972185e-02
2.116672517550226632e-02
8.833738512858733960e-02
6.789220332769500821e-02
4.791207118538862164e-02
1.113993792581821629e-01
1.079559569390329127e-01
5.634854178760523996e-02
6.390392928785411375e-02
8.520421780621213748e-02
1.163966044915242387e-01
1.193937750019184452e-01
4.827550119517950294e-02
8.255869719576634791e-02
4.948021645893085907e-02
1.316819938418535008e-01
6.781966036485911897e-02
9.932212352785135812e-02
7.576486166163706737e-02
7.840239804253265610e-02
8.718123569511243565e-02
9.257388225035578788e-02
9.969516825841576169e-02
7.469518937703922834e-02
5.237067027838059052e-02
1.127023840143274169e-01
7.366874171259020498e-02
1.279720054978676080e-01
7.649500414326086684e-02
1.076421275046599985e-01
1.297182792885330227e-01
2.927522330452474869e-02
7.385136642204696844e-02
3.702322584085032675e-02
8.957293744547588366e-02
7.814946727921712188e-02
4.220241900170115801e-02
1.285227979127881170e-01
1.183620683393160206e-01
1.226005408433652327e-01
5.368647247589841687e-02
4.005943689923544687e-02
5.397444941909708416e-02
5.307469732830585873e-02
1.065884251957731343e-01
6.021739800468463993e-02
4.139937094585567634e-02
5.340812454196135206e-02
8.860645020079299661e-02
7.125562247733728538e-02
1.014156486744066388e-01
1.310195886933968601e-01
3.930241980244083416e-02
7.758690661749861883e-02
6.821102806932108353e-02
9.299682398435911435e-02
5.291287854620817244e-02
9.823607123808229813e-02
1.051628676005949975e-01
1.106392720544615849e-01
9.169110574789303414e-02
4.226687546982921956e-02
1.022141655795409110e-01
1.123167815863504726e-01
9.391790291248267031e-02
4.227899652336804953e-02
5.908300346851289020e-02
9.318724797541452776e-02
9.040313807310675076e-02
1.443028212765939955e-01
1.047397737036251247e-01
6.145506055894786601e-02
8.976977937310243183e-02
1.067371449565942682e-01
6.567589028494806580e-02
6.711525505652757295e-02
4.934794653726393837e-02
8.925725632966557965e-02
1.071564097120554226e-01
7.859136858541543313e-02
6.760919809533495750e-02
6.214583764467385835e-02
6.921757135524023163e-02
9.525106288250169417e-02
7.662098672519496168e-02
5.003350863821932892e-02
9.612499067897264937e-02
8.289782886386083682e-02
1.098824872407659498e-01
9.560570953866573407e-02
4.732113183010992763e-02
1.180109530424872100e-01
5.423674850302712819e-02
6.446388775944919547e-02
8.006136890304514642e-02
5.938474380622076054e-02
7.348248889924134664e-02
1.354242271575400169e-01
4.071661749762967020e-02
6.175673771948866908e-02
1.005347622365655169e-01
5.478782893924864089e-02
5.163703015245064282e-02
9.119521870242579265e-02
8.672518602155369905e-02
8.913939114038786637e-02
-5.961839831245484278e-02
5.363888748694948250e-01
-3.315321843636713506e-02
4.503671334467241882e-01
-6.109267372195107404e-01
8.158117902959365342e-01
5.234551615933999980e-01
-7.940289645651571471e-01
1.470728588802668324e-01
-2.443195412204412220e-01
8.420029138258180446e-01
8.506041934249083947e-02
1.546160407789506919e-01
9.102435208858140891e-02
2.070246168259045338e-01
7.948670598211438065e-02
-7.966279315686580764e-02
5.338873293488790445e-02
2.069685402864326618e-01
9.726587559418347073e-01
-6.603037809171866113e-02
5.369863769807553533e-01
6.754156328678797561e-01
-8.421313818718138000e-01
-9.794286142984983679e-01
-3.619037457391729995e-01
2.653612328179739688e-01
-6.383843630760350774e-01
1.008865480627796574e+00
4.974529238075653947e-01
-2.167088604065664503e-02
9.043226343503798503e-01
4.903761952637480381e-01
5.064573642592955505e-01
-1.123721112157539892e+00
-1.250852109917797994e-01
-1.611983871137543378e-01
5.078297786720352425e-02
1.518861885342752682e-01
9.307204627658652862e-01
-5.909885675963465479e-01
2.963591073056661140e-01
-6.859622920115979738e-01
-6.692422376960548425e-01
-3.720726933397739411e-01
1.010006854804574195e+00
4.377030005249471500e-01
1.037464894902086598e+00
1.677900816753203142e-02
5.156993016947543085e-01
6.942756217786326678e-01
-3.101676765215883314e-01
3.922622792376010414e-01
6.090345341256375722e-02
1.664218594360222792e-01
7.092634763218014227e-02
-7.781176058990921796e-01
-5.570215487478488159e-01
6.088541235202318269e-01
2.974108913242485830e-01
3.265904337905557037e-02
-8.369991185853501436e-01
-1.120655270230144773e-02
5.557460345536852087e-01
-2.125693031407354661e-01
1.817963373803467009e-01
3.014871379040398591e-02
8.344413201768334787e-01
-2.001145602163230952e-01
-4.704538765948457213e-01
6.615050605706633835e-01
-2.078315934611629223e-01
1.361867623333950228e-01
3.396915920632871400e-01
3.876704845945995737e-01
-1.092366777819986368e+00
2.777937038786468249e-01
-3.502208482952332003e-02
-7.120678700281370122e-02
1.048756031841738157e+00
1.019153057734492940e+00
-2.375181351211853309e-01
-3.554359250801817915e-01
-7.392982489864797779e-01
-1.224647783092499553e-01
-6.319788367595612355e-01
1.194985589117552732e-01
-2.783188654010961272e-01
2.431062037303214352e-01
-2.397315562137515843e-01
7.770540124351278388e-01
-2.300431242828123168e-01
8.181553725107500175e-02
4.644774162928102523e-01
-2.400260980397272703e-01
-1.943912690236425933e-01
4.740766822188148821e-01
1.028143324425508376e-01
-8.536583255445292506e-01
4.830280338545610563e-01
-6.139953909777774443e-01
4.605792827494516462e-01
-8.348173707449533382e-03
9.293674183526422494e-01
1.029876177810875815e+00
5.005995167405523638e-01
-9.755336950090943704e-01
-2.427017008261521738e-02
6.251614886027583307e-01
7.976635200265448367e-01
5.315375119514426094e-01
-7.368907937387941809e-01
5.664549752281576867e-01
-5.273951568599545281e-01
-5.168953962289016824e-01
-6.356387298631656080e-01
-2.054655177801497645e-01
-2.373847033730223655e-01
-1.970780959991462467e-02
-1.904254429801597315e-01
2.639662390537140246e-01
-2.835151222578984331e-01
-1.690252903461675338e-01
6.598896183320029918e-01
5.113446702420151313e-01
2.838266229933590901e-01
3.367928914778418048e-01
6.913130353746568812e-02
3.128258469886737170e-01
-9.265355751520396033e-02
-4.747774679734810266e-01
1.065804673186745211e+00
8.054919496187847860e-01
6.033181786677734859e-01
1.277523941330279203e-02
-7.613877900411389898e-01
-6.483155259790223113e-01
-6.943890949827343784e-01
7.745692454012569061e-02
7.730693143379698817e-01
-7.935918271253706857e-01
-3.806254415148734305e-01
8.635035724565895965e-01
-2.441476040429008398e-01
-6.238794031410761498e-01
5.834904135731039387e-01
1.010972739980716240e+00
4.322650253636938222e-01
1.001835576293613528e+00
5.705008754607913124e-01
-3.306944369775857706e-01
-1.686258686257058048e-01
6.817549880945189544e-01
4.787363745943285509e-01
-4.176959204608253762e-01
4.652608498117031255e-01
-5.221710086926599492e-02
-4.300465280533800061e-01
-3.750828731502848234e-01
6.454574461450867107e-01
3.226080600105965535e-01
-5.085783412387901992e-01
-6.179788913414844265e-01
7.188356217852664987e-01
5.309112344107719261e-01
2.212989973385434128e-01
2.929391525024828136e-01
-5.036414289654471688e-01
3.892475656218555846e-01
-4.301804681699666899e-01
2.059905866976298738e-01
-4.360622149279008708e-01
1.077813489849090700e-01
-4.507955877710287940e-01
-6.913643282460195660e-01
-8.036366409119725107e-01
7.051302924015152573e-01
-4.948973605662986275e-01
-2.989185308343361158e-01
-2.252380048877139496e-01
-4.502855205637931735e-01
-3.142072654147710642e-01
5.000242066478579606e-01
-2.898147036698054194e-02
-7.221484903270263267e-01
3.118308921773409459e-01
-6.641214066171283736e-01
5.302606092704676977e-01
4.675871890889224947e-01
-8.494623184595540000e-01
6.312997735241050457e-01
4.365393551864451549e-01
-3.946776204895851570e-01
1.077963364315419614e+00
-5.595065671987779765e-02
1.122948908012182834e+00
2.072708668768929452e-01
8.634023383240272409e-01
4.593208534510213048e-01
-5.947293613147702773e-01
-9.656652532919865473e-02
7.976918139862150259e-01
-1.731005701601546209e-01
1.096219275381414837e+00
1.385768229518566375e-01
-4.308380377744021050e-01
-5.048999018468076638e-01
1.949071923771091563e-01
5.135706965077805330e-01
-6.191187622917787570e-01
7.669084939057064787e-01
-4.935245111033814691e-01
-3.317284082636546838e-01
5.837256571459554788e-01
7.230209019333537768e-01
1.477328097990144307e-01
-3.997753767934829339e-02
3.293211453523162136e-01
1.104702207363918331e+00
5.118035883043614565e-01
2.857994449194514730e-01
-9.552176768835202170e-02
-4.117029169648999676e-01
-5.223873758577075588e-01
-5.010353836171499431e-01
9.654258399328116691e-02
4.688911887626360797e-01
5.036672416163813226e-01
4.925402539462407914e-01
-1.109244817743776229e-01
1.021810723093601991e+00
-6.464762041482503552e-01
-2.523667438597451684e-02
-2.366773012598837878e-01
1.886442937682738519e-01
-3.026248996900731680e-01
1.399797767337888077e-01
7.191928788009367413e-01
2.899795747230909382e-01
8.892477363783203304e-01
-5.526017602186740207e-01
-5.418601399748455005e-01
-2.558501549030463007e-01
7.897605090472692435e-01
5.503650143058533839e-01
-3.309727489330089312e-01
6.680997897872770208e-01
3.343317876382764231e-01
1.055176676451216933e+00
9.917817881124659785e-01
-1.037681296289010291e+00
1.388300457929400045e-01
-6.081092040276090405e-01
4.071211842059101471e-01
2.070699759727066824e-02
1.590305116124761386e-01
-1.645643116678203177e-01
1.299475546606476684e-01
5.413536611268021659e-02
2.590863753576619702e-02
3.397732651972610457e-02
3.757577184962641176e-02
5.768294991609116545e-02
5.669574675176693862e-02
1.100359164526500261e-01
4.794569419653017806e-02
1.246162865395478991e-01
6.474679448199995024e-02
7.604281082450631279e-02
1.372570419912400586e-01
5.407428468723697590e-02
1.100768148158419446e-01
3.438574271849126340e-02
6.250891603755083514e-02
7.782920879436901196e-02
5.244564290678836033e-02
8.057782883043543287e-02
6.108163078596438172e-02
5.384453976950533821e-02
4.546438021587386608e-02
6.754468996572390860e-02
7.376779849230710728e-02
4.265272644691074644e-02
1.162871978985621640e-01
7.342216435186865731e-02
9.101006365201336212e-02
8.689637849734825614e-02
3.292871379622243355e-02
9.904227611153480770e-02
1.183543938541547769e-01
8.252240476966747618e-02
1.029565296736109914e-01
1.044688478050537356e-01
5.398487902654192094e-02
6.359820695058394924e-02
3.728034603344030501e-02
6.613798921011256049e-02
5.883329344921347376e-02
9.357703078870305280e-02
4.779086714721209050e-02
3.271479449788763927e-02
8.801657513731432625e-02
1.136486399971382011e-01
9.871854081961078942e-02
3.549257750653891236e-02
1.336386618928920023e-01
4.639023645242481425e-02
5.441638272860624403e-02
4.980095921842182111e-02
8.123823393656938452e-02
5.174195955897629984e-02
8.263515335839514975e-02
8.604652987831754030e-02
7.117027325720033659e-02
5.341117451927154119e-02
1.145717461008736032e-01
8.212827513838276416e-02
6.125634104636259319e-02
1.000342091204749900e-01
6.848568520528988679e-02
1.253948235347696061e-01
8.174599958406413014e-02
1.079773332340385611e-01
5.907988577965097438e-02
7.984488800850528256e-02
7.950196423830975523e-02
1.074671687354490784e-01
1.038949324572717575e-01
7.540603022533670652e-02
1.164937406765355205e-01
9.575442186107910314e-02
6.465874981008691569e-02
1.175483149231979774e-01
7.748243393198135653e-02
7.674653279405396766e-02
9.353835737911769810e-02
6.598531591566737797e-02
1.209853395875837567e-01
1.024333218204176998e-01
8.547243145341412718e-02
6.739068605210231377e-02
7.022552049880065317e-02
7.742747895336371533e-02
7.120711795662701404e-02
8.948200895202552962e-02
8.810651404329027103e-02
1.178210063954081843e-01
8.137175178579318657e-02
1.251811566566193579e-01
3.437563394157767960e-02
6.189019807246733118e-02
1.083066000281766444e-01
5.373342973131365469e-02
1.166983553244494431e-01
1.049977722938118668e-01
6.369202733691588236e-02
8.715240061682338890e-02
1.190050444606116226e-01
8.530183291076173790e-02
1.035158299843207952e-01
3.156796903006624244e-02
1.069974265287931686e-01
1.049513229665392511e-01
6.613477476210659345e-02
7.944961755773061185e-02
7.845220825191148717e-02
5.246201739261325409e-02
7.099806959136709117e-02
1.127401509783329536e-01
3.858602318105410628e-02
7.763818488951035324e-02
4.933911374868085037e-02
9.908132576783146295e-02
1.129610741967430609e-01
1.251100024086122253e-01
5.696846626270533204e-02
9.286352965004382454e-02
9.319750816757590983e-02
4.419043462286439961e-02
1.145471777118493989e-01
7.228540299944251346e-02
6.826912653197148018e-02
2.799796041538906571e-02
1.049354080588781879e-01
5.533750643775001143e-02
1.148743325360963435e-01
4.867410211641488155e-02
1.221600726249854052e-01
2.964189756748699528e-02
5.476921948700302911e-02
7.409190044291269484e-02
5.007569426805655310e-02
1.194297164138827666e-01
1.205378943412914322e-01
9.558664443725153892e-02
8.801726593377173780e-02
8.473361262271325578e-02
1.010324029219145936e-01
8.543325402399722102e-02
1.040801794674162950e-01
5.007658396195025646e-02
7.708241905268915783e-02
1.036285455197360622e-01
