1.130427290210792579e+00
1.058779408068132533e+00
8.750825107989208540e-01
6.205437742938815227e-01
3.442103283036095362e-01
9.238519802407815784e-02
-1.097550786239326198e-01
-2.492002177638241722e-01
-3.233086953085848037e-01
-3.398077469607905798e-01
-3.138509549805635901e-01
-2.627514304813653445e-01
-2.039115440584881866e-01
-1.495498970276301076e-01
-1.066310807935309385e-01
-7.686567684997150374e-02
-5.707369584754694303e-02
-4.370196488199747792e-02
-3.428220047563947104e-02
-2.676965375058104266e-02
-1.960941138432493666e-02
-1.173639560976895597e-02
-2.575364215205517161e-03
7.959089455678247660e-03
1.951625331905503663e-02
3.220020342643400979e-02
4.617813450605555425e-02
6.148070483270288294e-02
7.810427944931055966e-02
9.601241483718044034e-02
1.151361369504682458e-01
1.353739412161844291e-01
1.565917925341933914e-01
1.786231252772133293e-01
2.012688432908166514e-01
2.243746278920847048e-01
2.476870091215913894e-01
2.708218592995895180e-01
2.934148439346527248e-01
3.151216179298265696e-01
3.356178255826284262e-01
3.545991005850475108e-01
3.717810660235449371e-01
3.868993343790533279e-01
3.997095075269775921e-01
4.099871767371944253e-01
4.175279226740518657e-01
4.221473153963704594e-01
4.236219088931286736e-01
4.215269856985052188e-01
4.160650041547506173e-01
4.075447906189284542e-01
3.962687718625509947e-01
3.825354718094088335e-01
3.666411254366989669e-01
3.488758780910535262e-01
3.295234413672889495e-01
3.088610935308255256e-01
2.871596795176891148e-01
2.646836109345095944e-01
2.416908660585219970e-01
2.184329898375654277e-01
1.951550938900842580e-01
1.720958565051274591e-01
1.494875226423481029e-01
1.275559039320050547e-01
1.065203786749606696e-01
8.659389184268259654e-02
6.798295507724322340e-02
5.088758494017177336e-02
3.542726510385944133e-02
2.153702635105842270e-02
9.130216277020864607e-03
-1.877614968632046639e-03
-1.156871468191071964e-02
-2.002312760445667042e-02
-2.731869592354293011e-02
-3.353105927207379600e-02
-3.873382141882845270e-02
-4.300317892314806795e-02
-4.641852522037814149e-02
-4.905733923223681847e-02
-5.099489732607356829e-02
-5.230427331486908749e-02
-5.305633845723554953e-02
-5.331976145741627870e-02
-5.316100846528616641e-02
-5.264434307635135202e-02
-5.183182633174923670e-02
-5.078331671824849042e-02
-4.955647016824925311e-02
-4.820373933388343024e-02
-4.670448558097254482e-02
-4.501484382462305617e-02
-4.308634380858063911e-02
-4.085187968403732744e-02
-3.822571000963123633e-02
-3.510345775144681907e-02
-3.136211028301475606e-02
-2.686001938531216993e-02
-2.143690124676201486e-02
-1.491383646323399433e-02
-7.093270038043686734e-03
2.240988618046814429e-03
1.332409021227948243e-02
2.641329625369887718e-02
4.165475517193268501e-02
5.895923718913190920e-02
7.813561801470257639e-02
9.890275113469870760e-02
1.208894678118220128e-01
1.436345770854220716e-01
1.665868657714963674e-01
1.891050984626901632e-01
2.104580175282965981e-01
2.298243431142565074e-01
2.462927731431587275e-01
2.588699444688749018e-01
2.668848704542381434e-01
2.701744028178715284e-01
2.687181953249644373e-01
2.626337242359942370e-01
2.521762883067267258e-01
2.377390087882162162e-01
2.198528294268048688e-01
1.991865164641235808e-01
1.765466586370907642e-01
1.528776671779139285e-01
1.292463942265925647e-01
1.060512710511704870e-01
8.399006662675211066e-02
6.388271534589093359e-02
4.617257224262676096e-02
3.092770972034642948e-02
1.784092755652420120e-02
6.229752902722519858e-03
-4.963559715408351683e-03
-1.717202839813022561e-02
-3.220394387161678446e-02
-5.221567891431060093e-02
-7.948369027177761004e-02
-1.137529351366306368e-01
-1.510503203890573576e-01
-1.836778340404943977e-01
-2.002125452336272204e-01
-1.867856364808556102e-01
-1.317706724578942001e-01
-1.922621898789006467e-02
1.551641618015036916e-01
3.818376433372882017e-01
6.373521346011185029e-01
8.844031437051833588e-01
1.074297986996925358e+00
1.159283707537727137e+00
1.116871766653002140e+00
9.549367837432409800e-01
7.109796143369393473e-01
4.353469568065106432e-01
1.732563722586281663e-01
-4.353344985366125464e-02
-1.983267653467051528e-01
-2.868598572197210705e-01
-3.138730428994578880e-01
-2.980760860002215629e-01
-2.563232356619043473e-01
-2.025564690695563774e-01
-1.478054914533848962e-01
-1.001877360887559743e-01
-6.490836367909577631e-02
-4.197014500562131628e-02
-2.696696415664093932e-02
-1.678621118485922048e-02
-8.962944503490603843e-03
-1.679890886259390384e-03
6.232554532600319275e-03
1.529632825834443405e-02
2.538639396664160025e-02
3.639522585250797720e-02
4.861549300765024423e-02
6.211076090856385012e-02
7.691517542193634926e-02
9.303346279550384068e-02
1.104408806991699493e-01
1.290831037719762930e-01
1.488763529931035612e-01
1.697074297319252911e-01
1.914337157480061613e-01
2.139433349535266315e-01
2.370489127631369430e-01
2.604142060203509246e-01
2.837110008761930535e-01
3.066205151012312835e-01
3.288333980855772110e-01
3.500497308388867412e-01
3.699790259903583123e-01
3.883402277887353371e-01
4.048617121023040388e-01
4.192812864188942279e-01
4.313461898458800792e-01
4.408130931101787997e-01
4.474474730239768050e-01
4.508746410639321023e-01
4.510302937587983840e-01
4.480956169414029300e-01
4.422602156262484541e-01
4.337221140095129379e-01
4.226877554690491867e-01
4.093719975756490159e-01
3.939972061935853587e-01
3.767922018339887047e-01
3.579940354446148887e-01
3.378483747197202347e-01
3.166093428350630901e-01
2.945394821480772918e-01
2.719097541978719446e-01
2.489995397052313653e-01
2.260966385726151939e-01
2.034972698841586436e-01
1.815060719056720562e-01
1.604361020846409858e-01
1.406081090032267888e-01
1.221450877215444902e-01
1.050027520593353747e-01
8.919382695028924002e-02
7.471994685677915693e-02
6.157165576986267652e-02
4.972840720928087266e-02
3.915856422345860566e-02
2.981939938950486924e-02
2.165709481321248520e-02
1.460674212905787098e-02
8.592342500201608640e-03
3.526806618488063233e-03
-6.879872984118413914e-04
-4.158425049637204385e-03
-6.997941229754146841e-03
-9.330750076208213853e-03
-1.121200179460615787e-02
-1.265135195769776302e-02
-1.373303725363602540e-02
-1.452642820670931034e-02
-1.508566337705447534e-02
-1.544964936065679195e-02
-1.564206078935037256e-02
-1.567134033081746952e-02
-1.553069868858925062e-02
-1.519811460204502709e-02
-1.463633484641298221e-02
-1.379287423276974456e-02
-1.260001560804042270e-02
-1.097480985499867112e-02
-8.819075892266782166e-03
-6.035849391578581441e-03
-2.601794683024006433e-03
1.812410052373220753e-03
7.552771072128171281e-03
1.490063649952779942e-02
2.407269632363063724e-02
3.522098239926692298e-02
4.843268599448487255e-02
6.372642796718311353e-02
8.105241039421154370e-02
1.002960180447152738e-01
1.212779366390262098e-01
1.437643075002771886e-01
1.676137494602131239e-01
1.919194286196113930e-01
2.156006174119513286e-01
2.377052046996444568e-01
2.574096957740319436e-01
2.740192123553872872e-01
2.869674925929145415e-01
2.958168910647490102e-01
3.002583787779572466e-01
3.001115431685368873e-01
2.953245881014165408e-01
2.859742105399528667e-01
2.722052012430679069e-01
2.548273948170741710e-01
2.348987103004236132e-01
2.133658749604223637e-01
1.910644242932318382e-01
1.687187020238681556e-01
1.469418601062020824e-01
1.262358587229594487e-01
1.069917188278245307e-01
8.949220540529710666e-02
7.391078573451195788e-02
6.030976689122204137e-02
4.880690496134473116e-02
3.843218038553840310e-02
2.691916582923312151e-02
1.231430932012174233e-02
-6.982016919905560323e-03
-3.221551647476087604e-02
-6.427796873415909940e-02
-1.031043047056077189e-01
-1.390543296947765184e-01
-1.587191081815467475e-01
-1.499166761654713576e-01
-1.016974995894830286e-01
-4.344474339894609932e-03
1.507453253311075159e-01
3.690786935013137815e-01
6.210514072167390154e-01
8.669832855486343526e-01
1.068479363433333607e+00
1.188429891672254435e+00
1.191010336931896951e+00
1.058179963428211634e+00
8.334134660267198402e-01
5.672721920104895066e-01
3.012221562633763949e-01
6.763503990352746909e-02
-1.102110544766276012e-01
-2.207908052749072703e-01
-2.707734874625927213e-01
-2.720014554000556584e-01
-2.376895166834994688e-01
-1.824249321449590289e-01
-1.221674158522997461e-01
-7.131586183520864652e-02
-3.246764072759073666e-02
-4.726278907839902635e-03
1.368269725011426845e-02
2.542919046020763671e-02
3.404593177298127771e-02
4.200695705445543077e-02
4.994454259673114516e-02
5.838302304912935947e-02
6.770833668998496591e-02
7.816802542664628983e-02
8.987123479547526328e-02
1.027903541181894864e-01
1.169162060044440649e-01
1.323043936862629000e-01
1.489555601906082660e-01
1.668377436048884832e-01
1.858875652571043147e-01
2.060091115920520966e-01
2.270735126856404940e-01
2.489189422341643032e-01
2.713506175543051735e-01
2.941407995831315514e-01
3.170287928780983755e-01
3.397889554119889466e-01
3.622128052682738741e-01
3.838745238782790836e-01
4.043766888944730353e-01
4.233617077599203804e-01
4.405118177082794073e-01
4.555490857638044289e-01
4.682354087413451160e-01
4.783725132463452767e-01
4.858019556748450207e-01
4.904051222134782617e-01
4.921032288394755483e-01
4.908573213206615660e-01
4.866682752154561364e-01
4.795767958728743841e-01
4.695364216002437252e-01
4.566921134621161338e-01
4.414112892047908909e-01
4.240474487147413707e-01
4.049392635164861254e-01
3.844116675928232474e-01
3.627760850849990892e-01
3.403304017783072011e-01
3.173589590695602980e-01
2.941325872943288400e-01
2.709086078366755856e-01
2.479308331291570078e-01
2.254295666528223774e-01
2.036216029372142633e-01
1.827102275603680881e-01
1.628852171488121281e-01
1.443228393775683738e-01
1.271798329531269867e-01
1.114998572399217569e-01
9.724093633380324897e-02
8.435540052941147005e-02
7.279186892003050580e-02
6.249524939758829833e-02
5.340673865265728459e-02
4.546382217445389673e-02
3.860027425083879110e-02
3.274615796831668174e-02
2.782782521203643750e-02
2.376792033948753324e-02
2.048573516842295411e-02
1.789750491351375927e-02
1.591582325224405112e-02
1.444957266074188562e-02
1.340392441377963491e-02
1.268033858477373918e-02
1.224090985517602842e-02
1.210950381352503269e-02
1.221546464210807731e-02
1.250684602451575603e-02
1.295298304458594903e-02
1.354449218640339098e-02
1.429327133429991910e-02
1.523249977285452694e-02
1.641663818689308510e-02
1.792142866148861008e-02
1.984389468196127645e-02
2.230234113387813064e-02
2.543635430305348985e-02
2.940680187554848418e-02
3.439583293767151106e-02
4.060687797597783283e-02
4.822382231890653265e-02
5.739070617104882061e-02
6.841453885112835920e-02
8.150483954328617553e-02
9.675086276844244160e-02
1.141214599502316102e-01
1.334658035154061007e-01
1.545134337206270081e-01
1.768742806896776432e-01
2.000386911179068417e-01
2.233773859443594911e-01
2.461526608919328007e-01
2.677372538442419625e-01
2.871820180967947223e-01
3.035577267442037819e-01
3.161335020736329438e-01
3.243768155647969720e-01
3.279534878899623140e-01
3.267276889139462681e-01
3.207619376941168166e-01
3.103171024803939027e-01
2.958524007152480984e-01
2.780220053699843374e-01
2.573942297400588775e-01
2.348610143772501546e-01
2.114313839510391646e-01
1.879600518768440864e-01
1.651474203160211429e-01
1.435395801758637679e-01
1.235284209655315713e-01
1.053533335389154058e-01
8.910088456296504089e-02
7.470337339934535192e-02
6.193878815565892482e-02
5.075461081526200235e-02
3.953125502087030674e-02
2.488977658173403829e-02
4.654913176293175477e-03
-2.206387756326703975e-02
-5.487241805101693987e-02
-9.210267659740566104e-02
-1.297482509529688244e-01
-1.537487780729169251e-01
-1.493246172873558819e-01
-1.047024591056079645e-01
-1.111532521621187361e-02
1.371974315130770061e-01
3.444364612838725082e-01
6.020080629646206161e-01
8.576567776837822343e-01
1.064063341027630338e+00
1.185766508727939428e+00
1.199163056661987525e+00
1.092507780852552290e+00
8.774085979359907972e-01
6.083775875619084061e-01
3.359457402305554008e-01
9.680279436826082218e-02
-8.619660193874278953e-02
-2.040328741106376409e-01
-2.573271962020266534e-01
-2.552628012276387803e-01
-2.189783765573913854e-01
-1.660049636293809416e-01
-1.097880154730810076e-01
-5.968739670934240793e-02
-2.097738355039316382e-02
5.153336200162263181e-03
2.160166314734084103e-02
3.342855832727410770e-02
4.238787146462097422e-02
4.989935938485792755e-02
5.710567831929109356e-02
6.485658008294463428e-02
7.370891207455981808e-02
8.392661727659561643e-02
9.548073425522861368e-02
1.081080092082832705e-01
1.219171201467338372e-01
1.369914738214647598e-01
1.533255576706027690e-01
1.708809618575399258e-01
1.895891405931053597e-01
2.093492678834728837e-01
2.300270433211359378e-01
2.514546905664332144e-01
2.734309573475491306e-01
2.957303335987723214e-01
3.182261195295279510e-01
3.405698396409593265e-01
3.623543374434141096e-01
3.832032191476709704e-01
4.027708536649399207e-01
4.207423726068615366e-01
4.368336702855071807e-01
4.507914037133805563e-01
4.623929926034148208e-01
4.714466193689755280e-01
4.777912291238579079e-01
4.812965296822894201e-01
4.818629915589282553e-01
4.794218479688633905e-01
4.738337433677958233e-01
4.650322949799298167e-01
4.533533474620668469e-01
4.391369244050106202e-01
4.227133881361023748e-01
4.044027045031350354e-01
3.845124924816640810e-01
3.633400967700811668e-01
3.411732008220215717e-01
3.182898268463660307e-01
2.949583322151413944e-01
2.714373823175900702e-01
2.479759656918288369e-01
2.248134095086767315e-01
2.021793796941975807e-01
1.802938809296995848e-01
1.593672566517351785e-01
1.396001890521017808e-01
1.211836990778412532e-01
1.042697928977590338e-01
8.884926662851873325e-02
7.486276876673740588e-02
6.224905626548658116e-02
5.094487887888755895e-02
4.088497916211218663e-02
3.200209247138225549e-02
2.422694696396993433e-02
1.748826359819747461e-02
1.171275613343723647e-02
6.825131130112143188e-03
2.748090139880131257e-03
-5.970797656998446008e-04
-3.289706851367793419e-03
-5.410927000193395918e-03
-7.043883294196775363e-03
-8.273726014347154017e-03
-9.187612640563867089e-03
-9.874551962100850885e-03
-1.033900329604642288e-02
-1.057645127959259447e-02
-1.062824750637768843e-02
-1.051451294228825800e-02
-1.023413792545896199e-02
-9.764782166272573463e-03
-9.062874747359861774e-03
-8.063614123599658484e-03
-6.680968122119113235e-03
-4.807673942293114351e-03
-2.315238155744987498e-03
9.460632936540576930e-04
5.147185089784635757e-03
1.048031254427920535e-02
1.715886159652238105e-02
2.541747881365045633e-02
3.551375827360505472e-02
4.822855921842736371e-02
6.370858517904516571e-02
8.145386650374916715e-02
1.009609462264117186e-01
1.217233914902738634e-01
1.432318416819469697e-01
1.649740084314139377e-01
1.864346764693531611e-01
2.070957199187819786e-01
2.264361009784880141e-01
2.439318546841129642e-01
2.590560883146696414e-01
2.712789813925423066e-01
2.800677856834862811e-01
2.848868251966281129e-01
2.851974961844653822e-01
2.804582671428673124e-01
2.704131979509128980e-01
2.560245865293557799e-01
2.382195196013253413e-01
2.178514439408169023e-01
1.957237502089045900e-01
1.725897729537420600e-01
1.491527906105624413e-01
1.260660255016785858e-01
1.039326438364825411e-01
8.330575571144574476e-02
6.481061953918841601e-02
4.955090528293169816e-02
3.641793768950738613e-02
2.395644395679282293e-02
1.086365650805551190e-02
-4.010687008046731443e-03
-2.166434371746605789e-02
-4.294256552076436417e-02
-6.853809909311331383e-02
-9.899118588429459131e-02
-1.346900360169018540e-01
-1.732339771011205398e-01
-1.982756646429982006e-01
-1.927730855884360051e-01
-1.443010909257771424e-01
-4.505139568580661391e-02
1.081674210582479478e-01
3.139299161907177504e-01
5.659003310076834437e-01
8.250050949855198823e-01
1.032571418767975091e+00
1.147054816850164638e+00
1.145109759603905708e+00
1.021587840350084431e+00
7.966154423760916092e-01
5.247307079247411910e-01
2.552843238640757351e-01
2.340697047380360662e-02
-1.499907408793275942e-01
-2.570065989177025556e-01
-2.978939417268310907e-01
-2.909987961402531464e-01
-2.545318475640854228e-01
-2.034769608928477247e-01
-1.495912141169536136e-01
-1.014048223146928329e-01
-6.422112969144667949e-02
-3.974939182196600418e-02
-2.411564200285786289e-02
-1.383554925348575229e-02
-6.379962306659549623e-03
1.786157238105605567e-04
7.166027343113707745e-03
1.530646067543847168e-02
2.472244946397266635e-02
3.506292628487547164e-02
4.654138088533970458e-02
5.929995823528490945e-02
7.337897053625558330e-02
8.878745976938468010e-02
1.055031976953928058e-01
1.234726858545886902e-01
1.426110294810865875e-01
1.628010945946718191e-01
1.838940277172721460e-01
2.057338486868767746e-01
2.281850067327869103e-01
2.509121334021613969e-01
2.735664254719823441e-01
2.958112005552923085e-01
3.173218971011927403e-01
3.377860743948453148e-01
3.569034125574717664e-01
3.743857125463530000e-01
3.899568961548300350e-01
4.033530060123034500e-01
4.143222055842336604e-01
4.226247791721409186e-01
4.280331319136050916e-01
4.301707580412131859e-01
4.289411593584019911e-01
4.245524302280819229e-01
4.172185577426992253e-01
4.071594211536284091e-01
3.946007918711700313e-01
3.797743334645514723e-01
3.629176016619267142e-01
3.442740443503769510e-01
3.240931721940355503e-01
3.026312068867514915e-01
2.801505076504506309e-01
2.569193259118034978e-01
2.332118052564068900e-01
2.093079814287844287e-01
1.854937823657610840e-01
1.620611056640270387e-01
1.393079841265995600e-01
1.175383902340994546e-01
9.706218862607278453e-02
7.805379438882764642e-02
6.046562727438532792e-02
4.427881224658173492e-02
2.946832835293419772e-02
1.600300238493079785e-02
3.845508878029343762e-03
-7.047629888342613579e-03
-1.672604389078695061e-02
-2.524551536193563733e-02
-3.266797879045080233e-02
-3.906152092102428003e-02
-4.450038075437803831e-02
-4.906494954726395297e-02
-5.284177081246371754e-02
-5.592354036257132788e-02
-5.840918174669232354e-02
-6.040400110802245093e-02
-6.201950062796911245e-02
-6.335939836585165186e-02
-6.437316907088558304e-02
-6.510193306521473711e-02
-6.561153418922195668e-02
-6.594575623433701628e-02
-6.612632294303676106e-02
-6.615289800884520399e-02
-6.600308507633334543e-02
-6.563242774111920086e-02
-6.497440954986800909e-02
-6.394045400029177428e-02
-6.241992454114994593e-02
-6.028012457224879439e-02
-5.736629744444167456e-02
-5.350162645962916463e-02
-4.848723487075861510e-02
-4.210218588182476629e-02
-3.409672139779598710e-02
-2.369185257430295177e-02
-1.069641190547501904e-02
4.572353666526224325e-03
2.177243606315904315e-02
4.053706544237679205e-02
6.047462891618113345e-02
8.116859003003351614e-02
1.021776320546925604e-01
1.230356771245367381e-01
1.432518862375643243e-01
1.623106592553930916e-01
1.796716349032606574e-01
1.947696478181517032e-01
2.070145064319340866e-01
2.157911570236531740e-01
2.204597845371230880e-01
2.203558127797774768e-01
2.147970337319735634e-01
2.039132413653941267e-01
1.887844573294585049e-01
1.703693682730258174e-01
1.495570242114021564e-01
1.271668385263394485e-01
1.039485879660360101e-01
8.058241264513675561e-02
5.767881604473309304e-02
3.577866501236240393e-02
1.535318976200852892e-02
-3.196016125898013677e-03
-1.950613820761190262e-02
-3.303914290780403384e-02
-4.503124170398035281e-02
-5.715490219697335478e-02
-7.095609725351353925e-02
-8.785436466384338727e-02
-1.091428071417169243e-01
-1.359880923244001227e-01
-1.694304527726708531e-01
-2.115850448543706575e-01
-2.511175722253537468e-01
-2.685731662154886012e-01
-2.492111872823816743e-01
-1.830834705890918568e-01
-6.503432600413040776e-02
1.052994618985388930e-01
3.234886338395000505e-01
5.789401537533550579e-01
8.283389065648857352e-01
1.011740735782799883e+00
1.089346911336313450e+00
1.042960303009489387e+00
8.764527205660519460e-01
6.281633644831349228e-01
3.532133630432578442e-01
9.476737469557011684e-02
-1.172583166332156202e-01
-2.657860373651111385e-01
-3.479494531957562087e-01
-3.740429499935211122e-01
-3.567859543121865706e-01
-3.104807771090477564e-01
-2.510126137449143480e-01
-1.954039433908777434e-01
-1.520718995038039256e-01
-1.203827807082660378e-01
-9.877447741549143234e-02
-8.498750422510434333e-02
-7.606514156187131614e-02
-6.856832120311547041e-02
-6.104828240527646055e-02
-5.311851842726631606e-02
-4.441482605842782261e-02
-3.466492333218995636e-02
-2.368844952606843218e-02
-1.139696516166583198e-02
2.206047995329152040e-03
1.708517933243482168e-02
3.328026637322576559e-02
5.075178351526093284e-02
6.942826207803109995e-02
8.920862178715129043e-02
1.099621707743609206e-01
1.315286535126145018e-01
1.537187030259690446e-01
1.763136382242576350e-01
1.990651703632001779e-01
2.216953991046407557e-01
2.438968125165478229e-01
2.653322870730143723e-01
2.856350876542571027e-01
3.044511792624282065e-01
3.215627693130915787e-01
3.366226572247610349e-01
3.493167293828604580e-01
3.593877411224655760e-01
3.666353167283047942e-01
3.709159494347581409e-01
3.721430014258584329e-01
3.702867038352901652e-01
3.653741567463908990e-01
3.574893291921492633e-01
3.467730591552071195e-01
3.334230535678579521e-01
3.176938883120475898e-01
2.998859278140657558e-01
2.801898001115422088e-01
2.589525148672380261e-01
2.365659805703052287e-01
2.133954571195282590e-01
1.897798683002647480e-01
1.660315757297530781e-01
1.424362342504587875e-01
1.192527915968605856e-01
9.671348839545078346e-02
7.502385816473491897e-02
5.436272731523214552e-02
3.488220729966497180e-02
1.670741152037394719e-02
-1.432309882927907535e-05
-1.520389085254842017e-02
-2.893210294782744274e-02
-4.127189626174707082e-02
-5.229628742218025983e-02
-6.207837280779163885e-02
-7.069132854803779342e-02
-7.820841052316694630e-02
-8.470295436421970692e-02
-9.024837545302805131e-02
-9.491816892221607849e-02
-9.878590965519983003e-02
-1.019252522861869847e-01
-1.044099312001772195e-01
-1.063137605329624175e-01
-1.077106341711255300e-01
-1.086745723429170390e-01
-1.092798613908770450e-01
-1.096009139992126236e-01
-1.097122226029227376e-01
-1.096846807567769116e-01
-1.095218843567191680e-01
-1.092024780329886174e-01
-1.086977157750610434e-01
-1.079622845281074939e-01
-1.069343041929946420e-01
-1.055353276262845225e-01
-1.036703406402346289e-01
-1.012277620027978442e-01
-9.807944343762250994e-02
-9.408066962405260691e-02
-8.907015819712736648e-02
-8.287005974758154814e-02
-7.528595782184528684e-02
-6.610686892204430121e-02
-5.510524250599960205e-02
-4.203696098722779079e-02
-2.651925899531246827e-02
-8.480488148332422302e-03
1.154336271242816132e-02
3.299236710164964170e-02
5.529425366227145450e-02
7.786451119319111325e-02
1.001065528326085391e-01
1.214114891062703927e-01
1.411580854261699769e-01
1.587127620905473824e-01
1.734295942838888771e-01
1.846503120769277251e-01
1.917043004266435202e-01
1.939086002804117914e-01
1.905679834300943454e-01
1.818150760103401098e-01
1.686268490621094240e-01
1.519396772590080325e-01
1.326213160427982540e-01
1.114709016233978583e-01
8.921895097888161985e-02
6.652736185547974967e-02
4.398941276757915853e-02
2.212976299772223890e-02
1.404452596608285822e-03
-1.779909761690795511e-02
-3.516208605581490343e-02
-5.043433036494521238e-02
-6.346256425311853910e-02
-7.497330238266408653e-02
-8.661792856535842355e-02
-1.001736462064846955e-01
-1.175080778532137937e-01
-1.405783704356246833e-01
-1.714765021604362782e-01
-2.095169702024292924e-01
-2.462796360846367938e-01
-2.713952058168281889e-01
-2.734376859099811319e-01
-2.399243833762813027e-01
-1.573153308237521808e-01
-1.453150951257857482e-02
1.846841302544049712e-01
4.238192551838132482e-01
6.749882154861410744e-01
8.989320448757629478e-01
1.045018460570935170e+00
1.060048425844648090e+00
9.480654821539329369e-01
7.434018719523545204e-01
4.838213819189252640e-01
2.103912159244216151e-01
-3.258177462919730621e-02
-2.143932390835572022e-01
-3.321759648477563553e-01
-3.887583223805213817e-01
-3.924385857231730834e-01
-3.569848850284944586e-01
-3.015767070706646402e-01
-2.443555453462595284e-01
-1.935422973438892247e-01
-1.535851503891133563e-01
-1.259640619136286888e-01
-1.091907594552696120e-01
-9.880987994571448219e-02
-9.033394011582057681e-02
-8.286271663067219795e-02
-7.549751333901300043e-02
-6.756271471331279366e-02
-5.860563377970785803e-02
-4.839651210882641580e-02
-3.692851981578902654e-02
-2.431434556905281985e-02
-1.044977633640486493e-02
4.698939328613816781e-03
2.112500672055406953e-02
3.878743671791478470e-02
5.761104578314335534e-02
7.748645596263512014e-02
9.827009488673388304e-02
1.197841957697317189e-01
1.418167974098686335e-01
1.641219533835730771e-01
1.864225791006161592e-01
2.084510324223395605e-01
2.300016815948457416e-01
2.506588256065218623e-01
2.700236027534993477e-01
2.877395023142931274e-01
3.034923645498001643e-01
3.170103807033005650e-01
3.280640930004574685e-01
3.364663946493166025e-01
3.420725298403069492e-01
3.447800937462393023e-01
3.445290325223087646e-01
3.413016433060919175e-01
3.351225742175490963e-01
3.260080921672447452e-01
3.140042271697863208e-01
2.994459346689596346e-01
2.826778045874787648e-01
2.640354400142943536e-01
2.438454572045925806e-01
2.224254855797970221e-01
2.000841677275665975e-01
1.771211594017969571e-01
1.538271295226200375e-01
1.304830706745438995e-01
1.073551366901904225e-01
8.469754358871209310e-02
6.275549796190139917e-02
4.176521956778715683e-02
2.195394133063408026e-02
3.526445172196201322e-03
-1.344936736854630832e-02
-2.898424482275878400e-02
-4.309750393734271962e-02
-5.581629398329934766e-02
-6.717548869075255780e-02
-7.721774242049109227e-02
-8.599355467266864284e-02
-9.356127071020468866e-02
-9.998708155878346937e-02
-1.053450240068547483e-01
-1.097169806056335628e-01
-1.131926796690998771e-01
-1.158696952739996372e-01
-1.178534472598430499e-01
-1.192572012289064842e-01
-1.202020685462309307e-01
-1.208106775596930887e-01
-1.210577291326644656e-01
-1.209878422617844812e-01
-1.206901387655384128e-01
-1.202271604004141181e-01
-1.196386488040935142e-01
-1.189433868418252327e-01
-1.181391996751103707e-01
-1.172029547617031014e-01
-1.160905618556102303e-01
-1.147369730070913058e-01
-1.130561825626587302e-01
-1.109412271650775383e-01
-1.082641857533657298e-01
-1.048761795627938531e-01
-1.006073721248854358e-01
-9.526696926741660965e-02
-8.864321911441638835e-02
-8.034543150092228470e-02
-6.960491153551340293e-02
-5.651266232413013069e-02
-4.128652557358846592e-02
-2.417772167694874283e-02
-5.470849713515522558e-03
1.451611255116203210e-02
3.543180866529047762e-02
5.689150349083214181e-02
7.847708320350463285e-02
9.973705499883404879e-02
1.201849731870580779e-01
1.392957598156396859e-01
1.565098636220846051e-01
1.712343546576546027e-01
1.828429242873670368e-01
1.906758851899946205e-01
1.940401713580657550e-01
1.922093380978646127e-01
1.846709027587760954e-01
1.722841425362173495e-01
1.561539409792282451e-01
1.372759818582925395e-01
1.165515139946584205e-01
9.478731080480309878e-02
7.269566855219070090e-02
5.089440634727208229e-02
2.990686614748552102e-02
1.016191275725613664e-02
-8.006066172003946727e-03
-2.435716014189565765e-02
-3.874593580703295653e-02
-5.103743602069300139e-02
-6.135786001768808035e-02
-7.217492782572862420e-02
-8.582660393799353138e-02
-1.040568700027283688e-01
-1.280129664568447068e-01
-1.582421841230860216e-01
-1.948231226361588075e-01
-2.341614166746886772e-01
-2.612715430896025981e-01
-2.616582243482962200e-01
-2.234972628163807984e-01
-1.376355407576832501e-01
2.408979665753523819e-03
2.012606159583381626e-01
4.600477043906148755e-01
7.235675744151538469e-01
9.364316042725255862e-01
1.060076053704772203e+00
1.072762063955407408e+00
9.695756577694180089e-01
7.629509832357727062e-01
4.974717814653943360e-01
2.246628951672750285e-01
-1.854176741240962101e-02
-2.074940445030833969e-01
-3.298315208097700180e-01
-3.854775275130921663e-01
-3.866411422692710986e-01
-3.522588756487987638e-01
-2.975952271400713611e-01
-2.383263233834868322e-01
-1.853700196855855853e-01
-1.447978003219885790e-01
-1.178343659102698004e-01
-1.008576334099560851e-01
-8.848685580226409164e-02
-7.908022558730191942e-02
-7.104187144806961562e-02
-6.314187520827646560e-02
-5.451721466068416844e-02
-4.467176387621533268e-02
-3.347631982588518407e-02
-2.114829136829426276e-02
-7.669773157389139437e-03
7.094171415613058536e-03
2.316608963552828707e-02
4.053516211768925376e-02
5.915720280794639629e-02
7.895465898266731952e-02
9.981661124873676683e-02
1.215987735435569983e-01
1.441234931350474646e-01
1.671797506216449458e-01
1.905253737382157642e-01
2.140051108336699370e-01
2.372927127391759872e-01
2.599777952293173544e-01
2.816841751613474720e-01
3.020664052000898159e-01
3.208096277449462574e-01
3.376295749298948157e-01
3.522725686234912112e-01
3.645155204288676454e-01
3.741659316837340210e-01
3.810618934603769437e-01
3.850720865656599989e-01
3.860957815410241412e-01
3.840609948061740608e-01
3.787642817000720918e-01
3.703241727163575359e-01
3.590664249084868920e-01
3.453103511641888446e-01
3.293688202054624314e-01
3.115482565885787092e-01
2.921486407040799205e-01
2.714635087767796606e-01
2.497799528657625723e-01
2.273786208643854001e-01
2.045337165002755753e-01
1.815129993353322702e-01
1.585777847657256212e-01
1.359826516161719567e-01
1.139723353290962027e-01
9.278293413825149105e-02
7.264406556094669953e-02
5.377890294876219723e-02
3.638922988272003112e-02
2.051760583893896123e-02
6.114833469420630045e-03
-6.871975772081292781e-03
-1.849848338274543563e-02
-2.882312381068235715e-02
-3.790710445326712225e-02
-4.581439698009714262e-02
-5.261171710134637108e-02
-5.836854746565897645e-02
-6.315714367261154871e-02
-6.705253427271243294e-02
-7.013252076740213170e-02
-7.247767760905328427e-02
-7.417135220097015313e-02
-7.529966489738994240e-02
-7.595150900348095202e-02
-7.621855077534436806e-02
-7.619522942001270838e-02
-7.597875162489431400e-02
-7.560399046615380592e-02
-7.506323625488808826e-02
-7.437311646981070723e-02
-7.353155874613953591e-02
-7.251885915185982134e-02
-7.129768614980562524e-02
-6.981308059765956031e-02
-6.799245574795349800e-02
-6.574559724806784689e-02
-6.296466314023173305e-02
-5.952418386152325686e-02
-5.528106224386944434e-02
-5.007457351404592111e-02
-4.372636529367723152e-02
-3.604045759923676928e-02
-2.680324284204653462e-02
-1.578348582827767202e-02
-2.732323758949786741e-03
1.256632004997904929e-02
3.004286815992741888e-02
4.946969853582747212e-02
7.053280597891108117e-02
9.283128127645402794e-02
1.158773112017762452e-01
1.390961785142416640e-01
1.618262619592581997e-01
1.833190362682776686e-01
2.027388280379302798e-01
2.191619903842579320e-01
2.316412319446399803e-01
2.396829614777716000e-01
2.430715024547492886e-01
2.417406876433041141e-01
2.357807072266424886e-01
2.254381088034461134e-01
2.111157973878719785e-01
1.933730354095525850e-01
1.729254427135959449e-01
1.506449965605851649e-01
1.275600370638687586e-01
1.044833764067025772e-01
8.194104555891953967e-02
6.078900303317063408e-02
4.159823262529088739e-02
2.464492551170008663e-02
9.910480249403020095e-03
-2.918497224011093894e-03
-1.445019359036822139e-02
-2.558758815090934544e-02
-3.752845282629114348e-02
-5.148372391998674164e-02
-7.118298311106183163e-02
-9.914055594784214331e-02
-1.342753695173761197e-01
-1.719106913383881829e-01
-2.037744596323480262e-01
-2.191728196149397012e-01
-2.051590567477947491e-01
-1.432756141969721286e-01
-2.362863008172896850e-02
1.539114477048207641e-01
3.797098614957054030e-01
6.344181818605234557e-01
8.842953847514742893e-01
1.069564399826687495e+00
1.146355394556590745e+00
1.097386018664702423e+00
9.319590494037387485e-01
6.848496005070880965e-01
4.091885792049039239e-01
1.501708692108839061e-01
-6.186852918119421785e-02
-2.114544990974729921e-01
-2.916195086342421305e-01
-3.114100717694186504e-01
-2.910868541873330440e-01
-2.475941540692613574e-01
-1.945292197928731870e-01
-1.421422525828319738e-01
-9.733666263742646318e-02
-6.366928264923546466e-02
-4.132206548341378627e-02
-2.645959184273603479e-02
-1.587260965025792669e-02
-7.617071546059038696e-03
-1.472273810805497032e-04
7.684375782875270920e-03
1.662689367314483177e-02
2.703118480620332956e-02
3.884981048766456002e-02
5.169768694926327179e-02
6.570301425930091810e-02
8.100886395675666041e-02
9.762485863366038297e-02
1.155270099047243648e-01
1.346577204090944613e-01
1.549257838103492158e-01
1.762063847965008312e-01
1.983410990799939766e-01
2.211378933977072025e-01
2.443711255109515534e-01
2.678490585967086002e-01
2.913424948879060339e-01
3.144420134838402658e-01
3.367623925705124366e-01
3.579472106967223621e-01
3.776688488988856340e-01
3.956284795868622584e-01
4.115560658269046268e-01
4.252103613416561290e-01
4.363789105101525401e-01
4.448780483678209108e-01
4.505529006064800113e-01
4.532773835743406643e-01
4.529542042760048570e-01
4.493301435174516523e-01
4.424101311272386483e-01
4.325317900470929677e-01
4.200241074630742810e-01
4.052073163030157632e-01
3.883928952365240383e-01
3.698835686749801233e-01
3.499733067715383728e-01
3.289473254211275344e-01
3.070820862604491386e-01
2.846452966679797192e-01
2.618959097639686484e-01
2.390841244104396079e-01
2.164513852111897008e-01
1.942303825117901450e-01
1.726450995113690545e-01
1.519115424849459828e-01
1.322376011789722638e-01
1.138224299291338004e-01
9.685448735957180588e-02
8.141350138686731519e-02
6.744010497254140923e-02
5.486609144603908639e-02
4.362261081964442788e-02
3.364016978848061862e-02
2.484863173051008595e-02
1.717721670653392027e-02
1.055450146019279098e-02
4.908420593191791838e-03
1.663145641647013721e-04
-3.745053512572417160e-03
-6.899559213666247443e-03
-9.371721432924081524e-03
-1.123670238131430597e-02
-1.257030758696622147e-02
-1.344898589517003543e-02
-1.394982946837671628e-02
-1.415057378619838900e-02
-1.412959764540789274e-02
-1.394440936799773954e-02
-1.358697206758030344e-02
-1.305508765538464580e-02
-1.233249652103043416e-02
-1.138677126038836404e-02
-1.016877607507431745e-02
-8.612661177886893338e-03
-6.635862792807145638e-03
-4.139103154999008299e-03
-1.006390510808626102e-03
2.894980882234886397e-03
7.714430755420055054e-03
1.361809282885239301e-02
2.078881481145525637e-02
2.942615840096938010e-02
3.974639928395234251e-02
5.198252713577951323e-02
6.638090586225788015e-02
8.299306155429209131e-02
1.016581940981445276e-01
1.221403148094296481e-01
1.440966959607866138e-01
1.670778707818791342e-01
1.905276334593960785e-01
2.137830391370509342e-01
2.360744039155819596e-01
2.565253048527524893e-01
2.741856946772459613e-01
2.883548216542434761e-01
2.984153300558777810e-01
3.039173620503442530e-01
3.046196332991325528e-01
3.004894328250967139e-01
2.917026230124551422e-01
2.786436396067902832e-01
2.619054917150491768e-01
2.422897618055427360e-01
2.206600804784983327e-01
1.977253708995185266e-01
1.744780103367214175e-01
1.517525129648740478e-01
1.301976752768266854e-01
1.102766240975268652e-01
9.226688761167614605e-02
7.626029430670991371e-02
6.216295485354297184e-02
4.969526210656864673e-02
3.841094253372393658e-02
2.762434863375629046e-02
1.424852175088887722e-02
-4.399983717187441051e-03
-2.965727781031066504e-02
-6.151213500584721411e-02
-9.863809479638656341e-02
-1.352633750414137248e-01
-1.581589534963873944e-01
-1.542571143843608494e-01
-1.116137071196080244e-01
-1.940814630762410786e-02
1.326848815088517985e-01
3.440123281636981445e-01
5.895505993560943292e-01
8.369518561349015284e-01
1.048028267016392956e+00
1.178752007984253947e+00
1.181289074954126495e+00
1.051958873755948876e+00
8.344266548721320786e-01
5.716160947317999730e-01
3.033835414486330539e-01
6.651801482087051076e-02
-1.091701032626218593e-01
-2.193527589558822710e-01
-2.692452317998532130e-01
-2.682870460064119555e-01
-2.303384699058395879e-01
-1.736717098758463473e-01
-1.162011597214789305e-01
-6.610151847796102986e-02
-2.741770827943596292e-02
-1.090061529464047283e-03
1.504521383606899874e-02
2.591654805337252968e-02
3.450814559104437018e-02
4.206347780977531120e-02
4.963360470346254993e-02
5.794346793403871987e-02
6.739189083147248405e-02
7.805157839376811180e-02
8.981149873058338895e-02
1.028073163469555573e-01
1.170921884046124684e-01
1.326816215290634871e-01
1.495594825840344533e-01
1.676779518398467117e-01
1.869573446195835764e-01
2.072862688852712132e-01
2.285216928241626255e-01
2.504891891086602485e-01
2.730880040952370358e-01
2.960667992289556238e-01
3.190469800430092984e-01
3.416681433223474063e-01
3.635880771036740233e-01
3.844827606754487315e-01
4.040463825653161645e-01
4.219924017984386100e-01
4.380541414826657487e-01
4.519832598770366916e-01
4.635496064923474990e-01
4.725412220911481276e-01
4.787643386877446505e-01
4.820433795481989248e-01
4.821181707068648570e-01
4.786559144545369238e-01
4.719332832674901224e-01
4.622701711303648930e-01
4.499790283150782444e-01
4.353648613808229206e-01
4.187252331740682898e-01
4.003502628285592335e-01
3.805226257653172017e-01
3.595175536926394910e-01
3.376028346060999663e-01
3.150388127885477285e-01
2.920783888101091130e-01
2.689670195281856913e-01
2.459427180874556584e-01
2.232360539198731397e-01
2.010701527446683567e-01
1.796606965683478496e-01
1.592158588178297363e-01
1.399347655102941290e-01
1.220074305921940716e-01
1.056127932478626852e-01
9.078255916454412711e-02
7.743338151745829401e-02
6.549118229937944680e-02
5.488130944666924638e-02
4.552853683927599038e-02
3.735706430073495316e-02
3.029051759816822967e-02
2.425194844228508242e-02
1.916383448738154249e-02
1.494807933134037134e-02
1.152601251563149798e-02
8.818405622955325859e-03
6.745614322849540975e-03
5.227509988899059837e-03
4.183390968525140668e-03
3.531981552735749541e-03
3.191431976125992751e-03
3.080010259234261440e-03
3.191630335982938507e-03
3.517440770909975763e-03
4.022221740155793729e-03
4.691831843373541616e-03
5.533187999417000721e-03
6.574024135980260398e-03
7.862969789838844537e-03
9.469729170039071012e-03
1.148508490914073969e-02
1.402089806321581145e-02
1.721010811184966321e-02
2.120673295814045831e-02
2.618586892869917762e-02
3.234369077364990935e-02
3.989745166662935633e-02
4.908548320478742233e-02
6.019292461071790168e-02
7.406763761193815854e-02
9.061207852783191574e-02
1.092832822090443190e-01
1.295402369035575096e-01
1.508438842566904581e-01
1.726571193110991442e-01
1.944447905067766269e-01
2.156736996810528773e-01
2.358126020685946123e-01
2.543322063014058498e-01
2.707051744088275202e-01
2.844061218175371608e-01
2.949116173515500261e-01
3.017008579998345930e-01
3.042601798699025029e-01
3.020802768445227660e-01
2.946548838175011009e-01
2.821540214620710252e-01
2.656491441859443747e-01
2.460588253265920677e-01
2.242439585440632044e-01
2.010077578209865656e-01
1.770957574625690589e-01
1.531958120965971615e-01
1.299380966734356435e-01
1.078951064660282899e-01
8.758165706989839983e-02
6.984789068013592950e-02
5.596467448946607776e-02
4.390709889280915157e-02
3.165205961259835721e-02
1.759430614128357911e-02
5.464445636976563575e-04
-2.026106244294393482e-02
-4.517989560904248081e-02
-7.414387907261663080e-02
-1.066689803793022806e-01
-1.418545733194647995e-01
-1.790172082144003141e-01
-1.982713430819314226e-01
-1.768466356624558422e-01
-1.009429858384321838e-01
3.427227891773799995e-02
2.246644040693642763e-01
4.571312080154689150e-01
7.096030820907833769e-01
9.498357064269040695e-01
1.124711412329316262e+00
1.189437072741663659e+00
1.127178051991573948e+00
9.490290056136422292e-01
6.940138803494303454e-01
4.192855747193882099e-01
1.645059318391320358e-01
-4.281775929468527309e-02
-1.873099629956440360e-01
-2.658023760916370382e-01
-2.868620019793785558e-01
-2.631678237638379048e-01
-2.137247992203562263e-01
-1.554200164195178036e-01
-1.002959767053860363e-01
-5.555059469550455153e-02
-2.353719828089628763e-02
-1.997894669477047209e-03
1.254161265103476836e-02
2.253036034050082820e-02
2.999512542944559809e-02
3.655473815872723603e-02
4.342008197953799858e-02
5.139409355340438662e-02
6.087176275218687121e-02
7.184013265807999427e-02
8.387829956361239625e-02
9.680888324204565965e-02
1.109746438205991698e-01
1.263928242697963666e-01
1.430473907573010794e-01
1.608890402639696349e-01
1.798352005838497469e-01
1.997700303028449031e-01
2.205444165908265197e-01
2.419759732790977558e-01
2.638490445590441769e-01
2.859492224171311658e-01
3.081144679599945868e-01
3.299530921472673128e-01
3.510737453564946042e-01
3.711160810477737715e-01
3.897507557637558406e-01
4.066794176903907321e-01
4.216332240000816856e-01
4.343713720917426468e-01
4.446837133485272431e-01
4.523911022361414846e-01
4.573453963028444869e-01
4.594294561794484144e-01
4.585571455793184814e-01
4.546533352229550906e-01
4.475040390194613416e-01
4.373285458294417505e-01
4.244627842003340645e-01
4.092336517901667414e-01
3.919590153675582278e-01
3.729477108117184581e-01
3.524995431124464673e-01
3.309052863701322234e-01
3.084466837957564045e-01
2.853964477108897890e-01
2.620182595476934773e-01
2.385667698489191413e-01
2.152875982679090527e-01
1.924173335685953057e-01
1.701835336255010933e-01
1.488047254237395700e-01
1.284904050590146285e-01
1.094410089208174702e-01
9.184390344358499270e-02
7.577375510326903041e-02
6.117858156913665024e-02
4.799790209675250385e-02
3.616921662122515868e-02
2.562800575720786816e-02
1.630773079889812766e-02
8.139833720037632780e-03
1.053737173912626824e-03
-5.023155506646686912e-03
-1.016546030926530897e-02
-1.444981254202429982e-02
-1.795486683346012372e-02
-2.076129713256523457e-02
-2.295179670878726846e-02
-2.461107815241548452e-02
-2.582587976049061096e-02
-2.668498175668729266e-02
-2.727918868475410347e-02
-2.769431688522216300e-02
-2.791623168857297263e-02
-2.796605596621741519e-02
-2.787468236021758278e-02
-2.765316999281154653e-02
-2.729274446641334617e-02
-2.676462974195127284e-02
-2.601706475770990123e-02
-2.497565601781562977e-02
-2.354607921394233361e-02
-2.161417651794018263e-02
-1.904595658183511411e-02
-1.568759453782938088e-02
-1.136543199830132057e-02
-5.885977055805077275e-03
9.640957169287367456e-04
9.417945266993866735e-03
1.972856406130749085e-02
3.213175001590777569e-02
4.667283876713451685e-02
6.327813920807236203e-02
8.177521818992596059e-02
1.018915841972228009e-01
1.232546873478138350e-01
1.453919193928729092e-01
1.677306137168973199e-01
1.895980453377071884e-01
2.102214309064457665e-01
2.287279287075799639e-01
2.441448081631538425e-01
2.556545843943497931e-01
2.628588929115940331e-01
2.654911022416481248e-01
2.634486778649374750e-01
2.567944740248981339e-01
2.457586047810071117e-01
2.307384691212289174e-01
2.122987509620150315e-01
1.911714191483042946e-01
1.682557274535226854e-01
1.446021158547055041e-01
1.207873169500625898e-01
9.756885973145509872e-02
7.575217061996911139e-02
5.586954248442099757e-02
3.818013464135750629e-02
2.266997285505493315e-02
9.051949337519907962e-03
-3.234177251510543701e-03
-1.502175442852634463e-02
-2.741656731030274810e-02
-4.154157699788760261e-02
-6.119784531000376643e-02
-8.900870974392768864e-02
-1.241778372193929614e-01
-1.624892240785899278e-01
-1.963071960861664800e-01
-2.157826076175881624e-01
-2.072580242924511595e-01
-1.531385075584538735e-01
-4.356627170992555947e-02
1.229960000245320650e-01
3.397651539155737144e-01
5.918388166576769027e-01
8.463714111237795601e-01
1.044211541908178109e+00
1.142067804158649391e+00
1.118759021267270448e+00
9.751638788555462289e-01
7.398505223273992293e-01
4.663172985056532327e-01
1.997905958806490412e-01
-2.742190883645841126e-02
-1.958453503415985009e-01
-2.979018847270240578e-01
-3.411317989370552528e-01
-3.374775800658876279e-01
-3.002764845138942151e-01
-2.442605379876255922e-01
-1.855565354998093552e-01
-1.374942457594244549e-01
-1.014046488892184766e-01
-7.605622829628960746e-02
-5.953304720653686266e-02
-4.923452411329087841e-02
-4.187818124914068768e-02
-3.489550094731545121e-02
-2.776649955531865221e-02
-2.006705732880075324e-02
-1.147044601022880264e-02
-1.747328828886725999e-03
9.234239499124587136e-03
2.150881277088770652e-02
3.502952579208404305e-02
4.982604892447792255e-02
6.590166454590200285e-02
8.321601917080673205e-02
1.016984428760652620e-01
1.212479493009729625e-01
1.417332356472479071e-01
1.629926826790309979e-01
1.848343415769982678e-01
2.070357438800690675e-01
2.293439448686097060e-01
2.514756790733388980e-01
2.731173645873971600e-01
2.939251030663485587e-01
3.136058796336567700e-01
3.319189988844473693e-01
3.484813788438148596e-01
3.629567672729259176e-01
3.750610412426679807e-01
3.845624021513220359e-01
3.912814122455615662e-01
3.950909946204521628e-01
3.959164332194516911e-01
3.937353728344099579e-01
3.885778191055694331e-01
3.805261385215646386e-01
3.697150584194220380e-01
3.563316669845608131e-01
3.406008587676040422e-01
3.226520539289176037e-01
3.028207958296870173e-01
2.814883293492075333e-01
2.590140935868298633e-01
2.357357218619592909e-01
2.119690417140556449e-01
1.880080749026339371e-01
1.641250374072635854e-01
1.405703394275689966e-01
1.175725853832294693e-01
9.533857391397902725e-02
7.405329787960632237e-02
5.387994435995480114e-02
3.495989727850126044e-02
1.744469703416070758e-02
1.429896169366799176e-03
-1.314264318305207596e-02
-2.633677147670699520e-02
-3.821717142849977850e-02
-4.884935801862290428e-02
-5.829967849055893436e-02
-6.663531235108122175e-02
-7.392427137025359141e-02
-8.023539958143048600e-02
-8.563837328125641080e-02
-9.020370102966682180e-02
-9.400272364988737639e-02
-9.710761422843448842e-02
-9.959137811511496741e-02
-1.015278529230261018e-01
-1.029917085285555201e-01
-1.040584460336071854e-01
-1.048043494352348254e-01
-1.053064650906254257e-01
-1.056431137628386363e-01
-1.059252511709235511e-01
-1.061487308309442823e-01
-1.062409296873642051e-01
-1.061228175285333780e-01
-1.057089715641763017e-01
-1.049079812130650630e-01
-1.036225009318337414e-01
-1.017488032109021140e-01
-9.917675338457626610e-02
-9.578980963104945234e-02
-9.146502297240183266e-02
-8.607303727460023646e-02
-7.947808924749835691e-02
-7.153800844483695909e-02
-6.210421726424344979e-02
-5.102173094723207875e-02
-3.812915757920418147e-02
-2.325869808944752010e-02
-6.236146251137220098e-03
1.303285979421667934e-02
3.412826601216431555e-02
5.642794476186645952e-02
7.929415550381535560e-02
1.020737985341444720e-01
1.240984149846284385e-01
1.446841868226828032e-01
1.631319368513642343e-01
1.787271287093704364e-01
1.907398668710400813e-01
1.984248966463535158e-01
2.011505195505248755e-01
1.989538791226961589e-01
1.921464388743124307e-01
1.811182222101148931e-01
1.663377702714627648e-01
1.483521419363347804e-01
1.277869138193274690e-01
1.053461802716570139e-01
8.181255338115737963e-02
5.804716297228160876e-02
3.498495041994647420e-02
1.294417687833920340e-02
-7.562136412137649213e-03
-2.586375687155434769e-02
-4.171219677269286108e-02
-5.528071324104627537e-02
-6.716430825481914391e-02
-7.837972864492716296e-02
-9.036546610741952312e-02
-1.049817635013051420e-01
-1.245140886804109032e-01
-1.512688670322198670e-01
-1.850276956700038222e-01
-2.222465493682687088e-01
-2.561520053061313584e-01
-2.767412430673195090e-01
-2.707820515862461308e-01
-2.252321771002854800e-01
-1.285462451562719433e-01
2.885046961921861053e-02
2.424373782965054125e-01
4.933115367273461782e-01
7.481876455449371077e-01
9.596942734700381061e-01
1.078933511911150722e+00
1.078753324112713852e+00
9.567984304258941863e-01
7.354728888112062046e-01
4.619336542794134637e-01
1.915822866549412584e-01
-4.363084389810665403e-02
-2.229705705655644632e-01
-3.371800591890445897e-01
-3.884808082659398365e-01
-3.880758240816198912e-01
-3.510836890186289638e-01
-2.965557969884207168e-01
-2.390867934986665166e-01
-1.884768955008803704e-01
-1.497318913904176763e-01
-1.230572764549308779e-01
-1.049536325586062080e-01
-9.259762882438758724e-02
-8.384881509636504804e-02
-7.692887205893800262e-02
-7.042126422882140357e-02
-6.327123975364828956e-02
-5.478583041197001430e-02
-4.463385161325564982e-02
-3.284590239789268729e-02
-1.981436543718659987e-02
-5.934794983478253010e-03
9.190661941640285854e-03
2.558948752494038734e-02
4.322990834644770825e-02
6.204741916622424913e-02
8.194478292436865874e-02
1.027920307410159911e-01
1.244264619163375774e-01
1.466526439305417262e-01
1.692424124438729471e-01
1.919349071080362068e-01
2.144367189221990377e-01
2.364973714977305352e-01
2.578504175038983104e-01
2.780830223083173292e-01
2.968208324110988561e-01
3.137310418265386591e-01
3.285230151072014992e-01
3.409497438108969325e-01
3.508062001957127363e-01
3.579289039175629350e-01
3.621959220301876892e-01
3.635268689851537394e-01
3.618829066318539622e-01
3.572667442175077035e-01
3.497159726920707756e-01
3.391862149400595161e-01
3.259113173239313599e-01
3.102294526302833977e-01
2.924699984835018585e-01
2.729535373457623315e-01
2.519918565170304880e-01
2.298879481350611376e-01
2.069360091753985609e-01
1.834214414513771763e-01
1.596208516141200684e-01
1.358020511525404039e-01
1.122240563933408208e-01
8.913708850101351167e-02
6.678257347783977949e-02
4.539314216389116891e-02
2.519263023702808524e-02
6.374656216407368833e-03
-1.101269809989148356e-02
-2.698357389057840991e-02
-4.155935856070450823e-02
-5.476827638190938374e-02
-6.664538849242065965e-02
-7.723259289705443342e-02
-8.657862446721513450e-02
-9.473905494089557289e-02
-1.017762929226768143e-01
-1.077595838837280273e-01
-1.127650101618069972e-01
-1.168754909612598203e-01
-1.201807823530207375e-01
-1.227774772746123566e-01
-1.247690055301458462e-01
-1.262656337903203807e-01
-1.273844655924234459e-01
-1.281610247583902795e-01
-1.285696233059511195e-01
-1.286967489804312914e-01
-1.286103148665024565e-01
-1.283579373458290096e-01
-1.279667688949149840e-01
-1.274434957843350591e-01
-1.267743380787345608e-01
-1.259250259195580646e-01
-1.248396673959185910e-01
-1.234402515936434686e-01
-1.216281742828791840e-01
-1.192843650278425233e-01
-1.162692871868212241e-01
-1.124229379121735040e-01
-1.075648481503284487e-01
-1.014940826417856795e-01
-9.398923992111568593e-02
-8.487252082775685602e-02
-7.397278130105000571e-02
-6.106772299751790645e-02
-4.605242665069152197e-02
-2.894181459683148674e-02
-9.870650774928480670e-03
1.090645927329723236e-02
3.301506840339558935e-02
5.596088786818691208e-02
7.912978731776133812e-02
1.017877947994793308e-01
1.230810967579720749e-01
1.420937182531228360e-01
1.581499340412182708e-01
1.705057357537368978e-01
1.785833324229570418e-01
1.820169005738465906e-01
1.806523300978501445e-01
1.745472345839237938e-01
1.639711971809312274e-01
1.494057809615696175e-01
1.314483628519573233e-01
1.108508888698359063e-01
8.854909629505954005e-02
6.538793632655885701e-02
4.211763142688335071e-02
1.939367532220187540e-02
-2.223166997697545617e-03
-2.226685927940794812e-02
-4.036336588254346019e-02
-5.621206376669048849e-02
-7.001812736612998689e-02
-8.238411753951833949e-02
-9.420902120566065907e-02
-1.066882513435108149e-01
-1.213136469921707872e-01
-1.398734657065503484e-01
-1.644521898407402261e-01
-1.981657186622008404e-01
-2.419485808790076964e-01
-2.809674439921217570e-01
-3.006904081384728089e-01
-2.892219819283523563e-01
-2.373033535365225155e-01
-1.383122854550791203e-01
1.173707367567036405e-02
2.141941922565132050e-01
4.639106412183160999e-01
7.206816810976012233e-01
9.333685293715217046e-01
1.060454552052104482e+00
1.070223083514503903e+00
9.489002748035013646e-01
7.318580427512532127e-01
4.661830791335260238e-01
1.952093084795416267e-01
-4.158571756276752129e-02
-2.185287030916305551e-01
-3.317369359600211287e-01
-3.842983660058306716e-01
-3.847733800903702650e-01
-3.471948020983703920e-01
-2.909530627189151897e-01
-2.335070673251916640e-01
-1.827375975834595878e-01
-1.429680076293026736e-01
-1.155235638027378720e-01
-9.873144464821601018e-02
-8.794104274109235120e-02
-7.902533460738558890e-02
-7.108298523207763620e-02
-6.320224400429053091e-02
-5.470465852998585704e-02
-4.514507463196480025e-02
-3.431163634986723193e-02
-2.222578594017325312e-02
-8.981088204120784430e-03
5.538063335040061853e-03
2.135917912565958587e-02
3.847457567766145170e-02
5.684268455392910147e-02
7.638805237030613093e-02
9.700134079559571965e-02
1.185393265515608946e-01
1.408249014129246135e-01
1.636470722073698481e-01
1.867609608155394174e-01
2.098878414098383216e-01
2.328238866024311404e-01
2.552594955820676748e-01
2.767730937223970566e-01
2.969811732130270276e-01
3.155383207057252948e-01
3.321372173144205298e-01
3.465092016415518561e-01
3.584261733081701151e-01
3.676988016579719187e-01
3.741758505139963775e-01
3.777441781614427896e-01
3.783287373476708071e-01
3.758925752822002142e-01
3.704237231103153505e-01
3.618209784469790802e-01
3.503234675132924636e-01
3.362663827696192320e-01
3.199771602992902975e-01
3.017754798086044743e-01
2.819732646268275356e-01
2.608746817061930456e-01
2.387761416219016664e-01
2.159662985721220174e-01
1.927260503779898437e-01
1.693285384836084595e-01
1.460391479560481376e-01
1.231155074853475806e-01
1.008074893845119779e-01
7.935720958951444914e-02
5.899902765929559978e-02
3.995890868324403905e-02
2.238110740640364416e-02
6.260422565004222090e-03
-8.432297464694062800e-03
-2.173205385168950482e-02
-3.367928849296893123e-02
-4.431988401350715062e-02
-5.370516376626721655e-02
-6.189189183220061841e-02
-6.894227302024660831e-02
-7.492395286733309623e-02
-7.991001763837590754e-02
-8.397899432627908833e-02
-8.721485065193521069e-02
-8.970699506422449843e-02
-9.155027674001589566e-02
-9.284498558416634517e-02
-9.369685222952084391e-02
-9.421704803691277608e-02
-9.446210627266890536e-02
-9.439005418287275961e-02
-9.407162948640465649e-02
-9.356267652184713235e-02
-9.289761209598214331e-02
-9.208925761861276593e-02
-9.112901396996292425e-02
-8.998691526280255815e-02
-8.861161932267647146e-02
-8.692948779590545239e-02
-8.484381927910035481e-02
-8.223636507834317100e-02
-7.896750973226188131e-02
-7.487627101203092606e-02
-6.978029992137099735e-02
-6.347588069654891418e-02
-5.573793080637769182e-02
-4.632000095221670832e-02
-3.502602580336722227e-02
-2.172323193463687740e-02
-6.312579659731755791e-03
1.118625512928927632e-02
3.063470200853805198e-02
5.177529602229748867e-02
7.423167768302127434e-02
9.750859297133455950e-02
1.209918933360328852e-01
1.439485356940832794e-01
1.655265824306235145e-01
1.847554240218598487e-01
2.008264140352024052e-01
2.131250155947491953e-01
2.210839158651262681e-01
2.243512145003930258e-01
2.227903673959531483e-01
2.164783397055088932e-01
2.057051892075365540e-01
1.909762455702238848e-01
1.730122509511912432e-01
1.525939561112178433e-01
1.305273191135751520e-01
1.077541873615280726e-01
8.508101872182302627e-02
6.317615868833220683e-02
4.256984038205306742e-02
2.365418455110836204e-02
6.683199570745967759e-03
-8.227218556660689450e-03
-2.035463259548159556e-02
-2.982477727222490257e-02
-3.992496336910213162e-02
-5.319460941822044819e-02
-7.127597019021089664e-02
-9.491413669422810173e-02
-1.239570361779502305e-01
-1.573554321275793255e-01
-1.931634905089947285e-01
-2.287245897199362832e-01
-2.460798465016333370e-01
-2.254025034630937341e-01
-1.541351202499419981e-01
-2.698570801092211105e-02
1.540715315864742141e-01
3.797929302170173216e-01
6.336602993060519440e-01
8.802955352641002040e-01
1.058210887325509386e+00
1.125131087096759464e+00
1.065334618032104830e+00
8.895891131207941394e-01
6.359862409138746786e-01
3.597875145322795842e-01
1.050810192960799083e-01
-9.925167492316275264e-02
-2.390032860180955621e-01
-3.076242790776630431e-01
-3.205869292705587070e-01
-2.967997227314491671e-01
-2.521192891998709218e-01
-1.993504020202284399e-01
-1.482459781417957145e-01
-1.055070781187157081e-01
-7.478290611000062982e-02
-5.538873447857070587e-02
-4.247488363061069361e-02
-3.337976440420976909e-02
-2.602913321352175874e-02
-1.885894924660056274e-02
-1.081300737390496203e-02
-1.340098726821699684e-03
9.606018686918613159e-03
2.161561423368785206e-02
3.478108529401406634e-02
4.928748113216134541e-02
6.515827836227641723e-02
8.238297195279623009e-02
1.009170752264480220e-01
1.206821198602494039e-01
1.415656558855081792e-01
1.634212516878225385e-01
1.860684940070809756e-01
2.092929879374624547e-01
2.329250447860196360e-01
2.566928762475417791e-01
2.801985024967727500e-01
3.030660764571282972e-01
3.249420092742008048e-01
3.454949703157603191e-01
3.644158817034986453e-01
3.814178319316873234e-01
3.962360915029694008e-01
4.086281868352449886e-01
4.183745754913317794e-01
4.252818573301958005e-01
4.291802809486778281e-01
4.297758346218356618e-01
4.267792195526602383e-01
4.204965967918179448e-01
4.112534622629699377e-01
3.993677356362694275e-01
3.851497603283617899e-01
3.689023035023846764e-01
3.509205560679674041e-01
3.314921326812317326e-01
3.108970717447917531e-01
2.894078354077531112e-01
2.672893095657140616e-01
2.447988038607645800e-01
2.221860516814871955e-01
1.996932101629561584e-01
1.775548601867379950e-01
1.559980063808914519e-01
1.352420771199676908e-01
1.154989245250085950e-01
9.697282446355003083e-02
7.986047654961882236e-02
6.433045461509125096e-02
5.036422476582874674e-02
3.787775289926791078e-02
2.678842131038181723e-02
1.701354238032433408e-02
8.470974292471579112e-03
1.079121032421877409e-03
-5.243067612004155380e-03
-1.057609605076357054e-02
-1.499992289159088332e-02
-1.859396093999881455e-02
-2.143707719927735733e-02
-2.360759287049437813e-02
-2.518328335249548494e-02
-2.624137824190401341e-02
-2.685856133312091581e-02
-2.711097061832474370e-02
-2.707419828747210933e-02
-2.682329072829684607e-02
-2.643593304984030029e-02
-2.597674712020540261e-02
-2.542049690739794920e-02
-2.471902168118227452e-02
-2.381247474516456214e-02
-2.262932175056128065e-02
-2.108625045347551144e-02
-1.908812522989503796e-02
-1.652810807953467021e-02
-1.328627765342190251e-02
-9.227745207891362850e-03
-4.205465505699527637e-03
1.939292656554995713e-03
9.376946448432026474e-03
1.828959900564932489e-02
2.887103943008261647e-02
4.132674278976610632e-02
5.587387011889190930e-02
7.271736306553781837e-02
9.170534227023605101e-02
1.124523658845733159e-01
1.345067796695327833e-01
1.573370926758208554e-01
1.803319772438672086e-01
2.028002690038249733e-01
2.239709668755696381e-01
2.429932330687006869e-01
2.589363930825404614e-01
2.709627587972351925e-01
2.786069671118601709e-01
2.815545359540103654e-01
2.796877541619168239e-01
2.730859551901534954e-01
2.620255171096372293e-01
2.469798262453237747e-01
2.286171318002462316e-01
2.077993458994697729e-01
1.855079243107573550e-01
1.624083084687114320e-01
1.394593443863345050e-01
1.174921872274017204e-01
9.711178134218537150e-02
7.869686026745464913e-02
6.239994672647620338e-02
4.814735262901322782e-02
3.563917907132643781e-02
2.434931633617322400e-02
1.357052261187547543e-02
2.249854463739936559e-03
-1.361535513991324678e-02
-3.669537736738726075e-02
-6.719952916311218438e-02
-1.028761732476461133e-01
-1.390978939997249697e-01
-1.671493586780571916e-01
-1.707851338325473145e-01
-1.358205139389732363e-01
-5.180746924748391713e-02
8.796533255274247010e-02
2.877592119877305232e-01
5.427470710835018419e-01
8.008835148646267221e-01
1.012616004274926151e+00
1.140359504821321979e+00
1.158496395214926533e+00
1.053376467371040626e+00
8.373788553221470643e-01
5.679682676041153400e-01
2.967863434859905891e-01
6.104696072779669525e-02
-1.164620417818437864e-01
-2.273788640257076166e-01
-2.744199673327229472e-01
-2.671746528011086919e-01
-2.271553166094291698e-01
-1.722813182911741570e-01
-1.160311724164359987e-01
-6.744254859191019247e-02
-3.111227146089603698e-02
-7.196320703293872766e-03
8.434474000372017485e-03
1.971727421960204479e-02
2.836532386017950186e-02
3.586152152904694551e-02
4.335753523234981560e-02
5.167380237543613836e-02
6.129947264273766239e-02
7.239172238980912111e-02
8.477597796134508923e-02
9.823835896492090491e-02
1.130038290218099428e-01
1.290957114991664323e-01
1.464968281475647893e-01
1.651548315237642561e-01
1.849822049907083044e-01
2.058562627175244686e-01
2.276191496795252345e-01
2.500778416582071784e-01
2.730041452412509950e-01
2.961803789803297282e-01
3.194247509013846686e-01
3.423161040524747012e-01
3.644432957087267444e-01
3.854284602922684044e-01
4.049270093722289188e-01
4.226276316647382680e-01
4.382522930329277311e-01
4.515562364869298850e-01
4.623279821838779946e-01
4.703893274279069003e-01
4.755953250694048839e-01
4.778341875418968820e-01
4.770273366467587817e-01
4.730905772979129842e-01
4.658457754070818857e-01
4.555747808681802624e-01
4.426289190214157676e-01
4.273492915978074347e-01
4.100667767191831792e-01
3.911020288981827409e-01
3.707654790382555188e-01
3.493573344336614039e-01
3.271675787694707238e-01
3.044759721215643533e-01
2.815520509566337148e-01
2.586551281321798901e-01
2.360342928965151188e-01
2.139284108887618552e-01
1.925661241388530454e-01
1.721658510675315723e-01
1.529357864863510053e-01
1.350739015976759327e-01
1.187222484838443975e-01
1.038580228534173727e-01
9.042565812549606397e-02
7.836680603622539487e-02
6.762029956109272266e-02
5.812215291492831698e-02
4.980567157496523095e-02
4.260187030642657163e-02
3.643910334012033514e-02
3.124290617574236595e-02
2.693599555233113993e-02
2.343826944826751801e-02
2.066680708127492661e-02
1.853586890841927431e-02
1.695689662610894849e-02
1.583851317009464174e-02
1.508652271547007359e-02
1.460391067667090106e-02
1.437863289796487143e-02
1.441830207153363755e-02
1.466212000323440477e-02
1.507256754889078204e-02
1.563542866955607707e-02
1.635979043151318882e-02
1.727804300627446346e-02
1.844587967058216801e-02
1.994229680640763683e-02
2.186959390095237488e-02
2.435337354664717652e-02
2.754254144115233713e-02
3.160932921592161937e-02
3.674953048015835305e-02
4.318229674253477868e-02
5.114975182782665469e-02
6.085466950484376414e-02
7.245501416594342381e-02
8.614555163973280916e-02
1.019961824867404582e-01
1.199483114697678932e-01
1.398148475538889823e-01
1.612802039064506754e-01
1.839002978970724345e-01
2.071025510976469419e-01
2.301858892823390734e-01
2.523207424275867861e-01
2.725490479011539735e-01
2.900063883253761188e-01
3.039843823783269783e-01
3.138228035227486612e-01
3.190689826422652420e-01
3.194778080413832599e-01
3.150117254454914417e-01
3.058407380008610343e-01
2.923424062746453056e-01
2.751018482548803767e-01
2.549117393504838347e-01
2.327723123912562586e-01
2.095235290434122877e-01
1.858658952855485325e-01
1.627844797654982578e-01
1.410268023732685339e-01
1.210991001922842175e-01
1.032663274993866342e-01
8.755215576483472983e-02
7.373897365230426548e-02
6.136788701888822722e-02
4.973871891509675652e-02
3.799162918126572364e-02
2.409929361582821214e-02
4.217928192050204861e-03
-2.331059574448434216e-02
-5.754820552183943783e-02
-9.496062714172663621e-02
-1.290437696994575500e-01
-1.460552183933340742e-01
-1.312890185047816405e-01
-7.264709703539758145e-02
3.935830120687654893e-02
2.128433764579091558e-01
4.448816172358026622e-01
6.983938241329883390e-01
9.333083290904057305e-01
1.110418399549726098e+00
1.191382024864707567e+00
1.140072130956199858e+00
9.639876662212045755e-01
7.168921417217668512e-01
4.464622748137705988e-01
1.911316719255776730e-01
-1.990917144197189292e-02
-1.670208788109485143e-01
-2.475622544537557645e-01
-2.723115803727073070e-01
-2.540836002437560359e-01
-2.071654083024979942e-01
-1.473164493441714573e-01
-9.129064334899882061e-02
-4.728062682906096492e-02
-1.500969272754390516e-02
6.903122701764757667e-03
2.080737450618019152e-02
3.002120903412121636e-02
3.797266851126031295e-02
4.565476685789139621e-02
5.365348661944194936e-02
6.241805406799749018e-02
7.225121691637646781e-02
8.330924431812981867e-02
9.560192686754118152e-02
1.090817870596485911e-01
1.238184865575546884e-01
1.398269457399955173e-01
1.570870996445653811e-01
1.755446146937081064e-01
1.951108886947180432e-01
2.156630508397394674e-01
2.370439617057664983e-01
2.590622132546435141e-01
2.814921288330653470e-01
3.040737631725761725e-01
3.265635488460320035e-01
3.487685858519511961e-01
3.702622320091609187e-01
3.906362130045101799e-01
4.095231722053327417e-01
4.265966706594473412e-01
4.415711870951578022e-01
4.542021179212529236e-01
4.642857772270063133e-01
4.716593967821767208e-01
4.762011260370077048e-01
4.778300321222277436e-01
4.765060998490500688e-01
4.722302317091736645e-01
4.650413323803342380e-01
4.548696785785441565e-01
4.419277831048686878e-01
4.265815720644994813e-01
4.091834906639026381e-01
3.900725379457847253e-01
3.695742667890922206e-01
3.480007839090126232e-01
3.256507498569736758e-01
3.028093790206428659e-01
2.797484396239286464e-01
2.567262537269798806e-01
2.339876972261853150e-01
2.117641998541743287e-01
1.902737451798165447e-01
1.697208706082225238e-01
1.502966673807423492e-01
1.321787815844954472e-01
1.155055370847920954e-01
1.002720608709577604e-01
8.642878853725752264e-02
7.392235986538844839e-02
6.269561882447829970e-02
5.268761357108631138e-02
4.383359644920266363e-02
3.606502399024878736e-02
2.930955691307756891e-02
2.349194800657597448e-02
1.853878331437002966e-02
1.437505222717917058e-02
1.092195337897234296e-02
8.096889591149717194e-03
5.813467872542510580e-03
3.981499419413310828e-03
2.506999615455860093e-03
1.295079106858725189e-03
3.688783321423487818e-04
-2.907681627941265459e-04
-7.450027300263551561e-04
-1.032680566409860216e-03
-1.170369713578890518e-03
-1.152351057947220182e-03
-9.506183307076451587e-04
-5.148781078327560427e-04
2.274501899258690035e-04
1.371234297037537617e-03
3.033629103192025164e-03
5.354076653299710484e-03
8.494306147491900716e-03
1.263833394112070380e-02
1.799246354475865506e-02
2.478528562419901604e-02
3.207105084969325004e-02
