7.232097079345307933e-02
5.335291061318864908e-02
1.047644172338668966e-01
9.976949337021918940e-02
8.953237188050498785e-02
7.609671386506058899e-02
1.120047391755595867e-01
7.246899701468462185e-02
4.990215082155157605e-02
1.419345751130312860e-01
8.533401119456046624e-02
9.620490431934602960e-02
8.990756258231129283e-02
1.108277701162705825e-01
6.670696817890843511e-02
1.383025891450027356e-01
7.516477956003431160e-02
9.061363139277787970e-02
8.140081730106829561e-02
9.958442700166340866e-02
1.002439313042834540e-01
9.554872844474350535e-02
4.422717665822508554e-02
1.094366646373829549e-01
6.612887766774940002e-02
6.468884298670846134e-02
7.719068511081210449e-02
1.267057636431719037e-01
8.675994129393237164e-02
5.522540251799711725e-02
5.470764234386880226e-02
8.051429698603233820e-02
9.627842858563229189e-02
2.975028595117010927e-02
1.036930486057068973e-01
5.477797115799599298e-02
4.918213473896151239e-02
1.210414285138883828e-01
1.071268913166175674e-01
9.216896263633560238e-02
9.560093559541658903e-02
7.594764113063376398e-02
8.113904660692734805e-02
6.174370476938937508e-02
7.261979598294199256e-02
9.036961971441050123e-02
6.232021943860744512e-02
3.113900241355498782e-02
1.043630915625486794e-01
1.056983577479888858e-01
6.091096459997655949e-02
9.670263954356540792e-02
1.006514422923293767e-01
8.956955862528691303e-02
6.920265661380138600e-02
1.146108574734973629e-01
5.974267026541666553e-02
1.204046473774623843e-01
7.780579778452199891e-02
1.044613364029563923e-01
2.595223038298268003e-02
6.974019578754347970e-02
9.060381469356776352e-02
5.477836737282835988e-02
6.773369992508510018e-02
5.531798647011152564e-02
6.742290355882842035e-02
9.255088492885828189e-02
1.202178017148739925e-01
9.369433193426948692e-02
8.115298915044807937e-02
6.355571597898609926e-02
1.030656361647806635e-01
8.465537491611035970e-02
1.219954582542829985e-01
1.203469106957849033e-01
6.487289559613125534e-02
1.220659816217656846e-01
4.419218108287401720e-02
1.189301872679240646e-01
6.441258661395662943e-02
6.871814876542316208e-02
9.858789780839376238e-02
1.335201108232577649e-01
3.981901250200871323e-02
5.885840258041531020e-02
1.007631132740197388e-01
7.660919525580210665e-02
9.022616718911737055e-02
1.351451332189367305e-01
5.076078356194798497e-02
7.991362093733347938e-02
3.115346990383172782e-02
5.445203424035331002e-02
5.894689450118443391e-02
7.395279698854619055e-02
8.260785358094370479e-02
9.210896892711598061e-02
5.728559744330587872e-02
3.873077881372170156e-02
9.372917731324253987e-02
1.379134053343031019e-01
5.099484107053896959e-02
4.514280516593454501e-02
9.704580903283424598e-02
2.699180774736590141e-02
8.105157999725576268e-02
5.632529945751435507e-02
1.080151819809815061e-01
5.585741151324811332e-02
9.893150572432581058e-02
6.939851581172915007e-02
1.319585766695134943e-01
9.266813743153544392e-02
9.433436957837411374e-02
1.026844748165680887e-01
1.283269189542176336e-01
3.218235572457951721e-02
8.778503940697326979e-02
7.413520659113809197e-02
1.246359478553473871e-01
3.520991478963469284e-02
5.226981160931330056e-02
6.494871013851909181e-02
7.105106539214108008e-02
9.520239196493258949e-02
1.037933493140704572e-01
7.711804367396742077e-02
9.414511462187212520e-02
9.203784725755748131e-02
7.783905451828349031e-02
3.155255264538703308e-02
7.502966080425071960e-02
9.603664165236804051e-02
1.053183623327117041e-01
9.219922520562054413e-02
4.700191887713406347e-02
8.394463658030057451e-02
4.189514727171649716e-02
4.723640199734596007e-02
1.182545018358164002e-01
3.999171884975897401e-02
8.719665867374204460e-02
1.427069575086376274e-01
5.927337020933911432e-02
6.477053128262726112e-02
9.713443651553227420e-02
8.655333367534029376e-02
1.410139429789052656e-01
1.285718628426350540e-01
6.527506211834716021e-02
9.957902480645249021e-02
6.045523556514161012e-02
5.180929951945405232e-02
1.413003181272807218e-01
1.350236388397097198e-01
6.498530946196588720e-02
4.222207307066216248e-02
9.999600575572810401e-02
8.987563148893906728e-02
8.146620779314071858e-02
7.227721267652825743e-02
1.301977117550560670e-01
1.087182914830138597e-01
5.207765100437972139e-02
1.240706544874670414e-01
7.697205820025344869e-02
9.983977182796693883e-02
1.227803915253520561e-01
7.917574174722095959e-02
9.225572166917102301e-02
9.745585190397547393e-02
1.027490702169902431e-01
3.506699661756036701e-02
6.482044775893454347e-02
9.847983167210391797e-02
4.982986682150025021e-02
6.865364062762210895e-02
9.585632828794647675e-02
1.155422475584433478e-01
8.322615384789573689e-02
6.792837517538699577e-02
7.884525002936942917e-02
5.174406922282666355e-02
1.376721520496272944e-01
8.060046835932138665e-02
1.268109927277692450e-01
2.497211225821838881e-02
2.842861399977807124e-02
7.735223702484420039e-02
8.773909279315281196e-02
2.792500122501226020e-02
5.207325663830307538e-02
1.280920918438708533e-01
7.657532000871031252e-02
1.151344013220990115e-01
1.181710544193349255e-01
3.968783469250850710e-02
7.677399607189164255e-02
6.871548149551140461e-02
6.197544079238213183e-02
7.949972989453116257e-02
5.039234735101939811e-02
6.209752460661006890e-02
9.064673088085588304e-02
3.189470649261032936e-02
9.815705794716758636e-02
1.056719089060316891e-01
5.427804556509761152e-02
1.141758949485632835e-01
6.062873505939785079e-02
5.541237426000646810e-02
7.121688339121681754e-02
7.701607349534375646e-02
7.440742900341419663e-02
1.242043379288287064e-01
6.843146991791861089e-02
8.587991493168167789e-02
1.088452229247725972e-01
3.387213584805400662e-02
1.126523630562561440e-01
6.782541335317285314e-02
5.889140625457961464e-02
5.335742465598126982e-02
8.024239896246267156e-02
1.043601444837631703e-01
3.109469926439617851e-02
9.575482738149265760e-02
2.621540327359101613e-02
2.651937822832773489e-02
1.223022752717358580e-01
4.602002637341852387e-02
8.842002384194123932e-02
1.112085134050150026e-01
7.596374198441827041e-02
1.020554104185028704e-01
9.529029147175065162e-02
6.543161507529290932e-02
7.035389740623555765e-02
8.684348344053936797e-02
1.073428444763171730e-01
1.136891920442206216e-01
9.672649071166411483e-02
1.131989073139458152e-01
7.419726651449444488e-02
7.784341309587272661e-02
4.809020657159093770e-02
7.077682567185893114e-02
5.785948181542751451e-02
9.712714998186648685e-02
3.680983223131906873e-02
6.121172652372172673e-02
5.922011582892638265e-02
1.030198633410796399e-01
7.511099994313813477e-02
3.729309521269938421e-02
6.589866319554588125e-02
1.010512188224369085e-01
5.522138226356076290e-02
8.130765070530215910e-02
5.205707213853800336e-02
1.205886796012161782e-01
1.090009931816401378e-01
7.794019444707071809e-02
8.761550803577090873e-02
6.862326201680397919e-02
1.231583055985049913e-01
1.021014946640338567e-01
8.180005761346159643e-02
9.762064994295527320e-02
1.063794702064022046e-01
6.144088292902932791e-02
5.609284337559578004e-02
6.498359689655243410e-02
1.142437122049376474e-01
1.063073721065578847e-01
8.686515015945049656e-02
1.040147776088526516e-01
7.875184383071179295e-02
4.867678366814243152e-02
3.692830385233096535e-02
6.564310734689085547e-02
9.605543160592676377e-02
5.930433482240918264e-02
1.345336360769056605e-01
7.360970554927052933e-02
9.314016333611577214e-02
9.573819856301035713e-02
9.075160082895979141e-02
1.077419513177504118e-01
3.221643468021707229e-02
5.164731862865094836e-02
4.545126538188376530e-02
9.897977827778361992e-02
5.549308324684950472e-02
1.158562936183974851e-01
8.559100623522387929e-02
6.236173422126228827e-02
8.372494480309460030e-02
8.212493216906815996e-02
1.397823110096313090e-02
1.050078188519615180e-01
6.883152142013640451e-02
1.205977340479994775e-01
1.225329690767631846e-01
8.996287861577312306e-02
1.102201986948532497e-01
-2.181159913405663064e-01
-1.599316841031589720e-01
7.525812418782548141e-01
1.267966657058688273e+00
-5.262481155411320444e-01
-2.666548043184510108e-01
-1.879448706070980524e-01
1.949534776545318315e-02
-3.320965438546257253e-01
8.172101449663136119e-01
3.218614740643020999e-01
1.803974722223874172e-01
-2.562655761281592559e-01
1.057516574967864775e+00
4.745824955401971579e-01
-7.844932095367249669e-01
7.471844239929450460e-01
-6.545840712753017154e-01
7.394071745453927313e-01
6.111744430201808687e-01
-3.507898327967099439e-01
-5.569070185386967853e-02
1.756423882182923668e-01
-4.755165907960954841e-01
3.422128392794312468e-01
-2.775354935532954315e-01
3.581489456958645845e-01
-4.892637018735676024e-01
-7.665084650889375517e-01
7.911631631595564818e-01
-4.825222125755355140e-01
9.850693141686358567e-01
-2.633671469129674203e-01
-5.551552730884938835e-01
-6.604693758526150038e-01
3.819095043581944848e-01
6.633771973670004041e-01
-4.306737763507747507e-01
-8.241187622488203024e-01
-6.487653869748898350e-01
2.419004008023827867e-01
-5.465442478128399589e-02
-6.842071409498903245e-01
-8.058497626588925211e-01
-4.435879005709079115e-01
-2.358863498755444377e-01
-6.778113221466757210e-01
5.386025377436789441e-01
1.648285836055892462e-01
9.088012516511184691e-01
-2.605838283059687122e-01
6.538882530206256982e-01
5.962826227321329497e-01
2.348634556846677379e-01
3.712185043149738295e-01
1.808674400597763965e-01
5.092313628409075310e-01
-6.871475145990790789e-01
9.085643291918377162e-01
6.665549501816824263e-01
-5.196638047988250131e-01
3.548033405811639174e-01
9.760502092935675611e-01
1.753175312896640137e-01
5.010173699508206624e-02
-6.398296157256428973e-01
4.029622497932912606e-01
4.941421566777344232e-01
4.774275339260203865e-01
-1.811716464403367033e-01
8.658548173763471745e-01
3.939142318869571779e-01
-1.858148678142690913e-01
-6.910793695425385685e-01
1.895965233399737326e-01
3.144520795373815236e-01
-5.616091990175062221e-02
-3.705203581219706499e-01
7.692787168682093668e-01
5.118291523396224507e-01
-6.123039884784673426e-01
-1.260667168438032726e-01
1.668767592095303787e-01
8.787039210637033193e-01
1.308605385568567536e-03
-4.603546618089028319e-01
1.985355154752696805e-01
-4.183026883594131440e-01
-2.845855273073169198e-02
-8.063674142805496992e-01
8.329037053702603721e-01
2.780604529342314835e-01
1.894161307182380127e-01
1.324750976770813771e-01
1.020904603496728624e+00
-8.082903777992838101e-01
-7.144118586310352903e-01
3.306647087130017981e-01
5.712421329888081045e-01
-6.515764758357770470e-01
8.126200926198164920e-01
-1.420262279071463074e-01
6.795029931055034389e-01
8.815654660825962552e-02
-2.976815634032003999e-02
-5.158244694401560304e-01
3.127364602949257444e-01
1.999243666994267310e-01
-2.556569488045281613e-01
9.056620708052712243e-02
-7.795902832314841602e-01
-9.196989216835828040e-01
9.029804501757983104e-01
1.053517482852025289e+00
9.745362331610083473e-01
-8.150687277230516115e-01
9.057352155974951469e-01
-1.840939122138466888e-01
-3.577909683929442197e-02
5.004466940783739437e-01
2.744992230349557194e-01
-4.620514511871214869e-01
-8.373183032582972585e-01
4.300008001877215769e-01
3.144537298759789712e-01
9.528550148413614806e-01
-2.726734252432764238e-01
2.753749038779555458e-01
5.819131318009462817e-01
7.928907337891873963e-01
8.398188891531060962e-01
2.897777977730154886e-01
-6.443088886557947204e-01
-5.599988245611645654e-01
7.460401910412118864e-01
-4.012498229760592117e-01
1.064677787594332736e+00
9.287470679818480290e-01
-6.758288736334576718e-01
1.539237085747691691e-01
2.071124766426544334e-02
4.572397360891192197e-01
5.530226957670152377e-01
6.524507282077286474e-01
-7.102501911545958668e-01
-1.948842765958289092e-01
1.525204788394653732e-01
7.802369267810707054e-01
2.526491463438395035e-01
3.602953968403727614e-01
-7.591132760251234624e-01
-7.543334484915898974e-01
4.715886082539038071e-01
-6.454379245500683204e-01
-3.914505426186861148e-01
-4.868593069065179496e-02
3.171550598431971402e-01
-7.478491376805103119e-01
-4.540910978574866919e-01
-5.606914178160935514e-01
-6.023060049500868901e-02
-7.444505166686987696e-01
1.537567261158840626e-01
-1.268511237382715651e-01
-7.271566391853860889e-01
-2.965763336069540124e-01
6.152875265646448044e-01
2.655876331158153469e-01
-3.425917939803069245e-01
-2.655329919224452828e-01
-6.947215337516062794e-01
-6.048006497515945323e-01
-2.085752112788337165e-01
1.909569213595728177e-01
8.152392559837022823e-01
7.574821419974964165e-01
-1.146651947586682513e-01
-2.763510048767418847e-02
3.079632312604048128e-01
2.127198483068511170e-02
-5.712030993338873541e-01
5.934649003210733520e-01
3.620431459266310048e-01
5.558523876306923350e-01
-2.802912359817192334e-01
-1.524731612461611707e-01
-3.243850968289310188e-01
-3.178508141903194639e-01
-3.520485475379734469e-02
-1.003722459562936958e-01
5.551664114642563819e-01
-2.749974757183877572e-02
-7.005969745513480618e-01
-7.044979890692495417e-01
5.771629268624528519e-01
-4.369877509319178288e-01
4.839114423821633815e-01
3.055250088920211660e-01
2.053714017890678756e-01
5.693633152087385074e-01
1.330505553909533956e-01
8.506481881195973038e-01
9.886115328673426017e-01
3.841299114337791143e-01
3.790828897895657801e-01
-2.898986694688595600e-01
1.646934056189998941e-01
-5.050421355271665913e-01
-3.741891428753273963e-01
2.644007441602112540e-01
5.643984175946783477e-01
1.779757808999858082e-01
5.444179432375209071e-01
-5.263620364506889082e-01
7.935010018189467829e-01
-7.027518207138784279e-01
1.643322281995123202e-01
7.677531649369380151e-01
2.331858016349351304e-01
-6.051877804172990372e-01
-6.188470336945596229e-01
-7.081618143642047503e-02
-5.493181234441463223e-01
-4.160188141406399587e-01
-7.563161145001692232e-01
-6.225356840184732565e-01
-1.079324868784496294e+00
7.516029563811918446e-02
7.234081060671997410e-01
2.286291070169991224e-01
-1.078222093098834655e+00
-3.982356388443989981e-01
6.530568938919859567e-01
2.734051254873455794e-01
1.595083908950229445e-01
8.630919185094411139e-01
6.004795847758588323e-01
-6.549708505876143949e-01
-7.295290095364556082e-01
-3.211490192875577354e-01
5.335643599616299859e-01
2.722189252088508815e-01
-9.145526410121908034e-01
2.568327686512997809e-01
8.795448559680779654e-01
-7.393085359321949213e-01
1.020389647811091455e-01
-3.800778134448945522e-01
1.454660227267620121e-01
1.879100539204544770e-02
-1.841808466912174813e-01
4.805098568745735932e-02
5.403436610926042327e-01
-3.085714947841931566e-01
-4.009644153344025241e-01
9.221186250517592331e-01
1.201020844699808750e-02
1.229383109063026391e-01
1.064161403099502246e-01
4.902650816692603886e-02
8.537107832275858676e-02
4.795111286940349077e-02
5.721202332753842767e-02
8.067349990031053020e-02
6.241338451670099680e-02
2.628146614177378354e-02
4.987226129582317258e-02
1.088329921225472813e-01
1.172160000062790058e-01
1.010903674260189844e-01
1.191414677075730288e-01
1.104224036680211823e-01
5.813849762026707807e-02
7.247053852781028260e-02
6.692248221189514568e-02
6.650265764553445202e-02
1.390331596231377809e-01
5.185983595255266171e-02
1.279140530423941990e-01
7.213507620549387822e-02
8.525839520725780885e-02
1.013804306136678463e-01
5.474430593827912805e-02
1.025174926013429216e-01
9.630730367597191421e-02
1.153050506096589128e-01
9.685494175571345010e-02
5.625391965906240133e-02
9.477943102980615486e-02
7.307706480149050998e-02
3.753573382336952702e-02
7.257289852039533473e-02
1.417548315595277830e-01
1.306750935937490143e-01
9.013131080768783943e-02
5.750189895765677600e-02
6.278873334874529588e-02
8.980793514523750798e-02
8.830627872834395653e-02
1.054587496643950850e-01
8.279744068390110234e-02
1.037940399727438900e-01
5.203649319079949737e-02
6.263361460127012115e-02
1.101285686408142450e-01
9.165696012615411059e-02
4.695319054111850993e-02
1.187801573674540229e-01
4.295324670015372714e-02
8.069760254304539360e-02
5.339367586966401596e-02
6.694943027406272118e-02
9.182673207781355540e-02
1.009265594156019269e-01
9.739530573647815770e-02
5.240466749611792652e-02
1.097065869580367004e-01
3.026742946074979443e-02
4.603478405312846911e-02
7.449284286029020374e-02
5.977173207255291609e-02
1.042158624334819511e-01
1.059927370278042208e-01
3.568397802341256170e-02
9.393322904243095461e-02
8.802888350585161281e-02
7.494899253390199800e-02
1.151044206587875235e-01
5.910082625869280543e-02
1.220476773801108111e-01
1.269593142282478826e-01
5.388166936903063253e-02
1.316712639418764486e-01
4.330938957849746196e-02
5.288551222475065816e-02
8.149703908151519072e-02
1.035457951972370977e-01
1.235453026336651022e-01
1.174004350359093285e-01
6.616117683941914740e-02
8.491218289321220136e-02
1.015767625875501207e-01
2.570232526390678340e-02
3.825870480821985664e-02
1.056908602344969195e-01
4.151284804929170069e-02
1.013729813319474704e-01
5.888497346013483319e-02
9.518734857686232675e-02
7.266241392393660292e-02
1.151767736785781343e-01
3.751698060742291591e-02
3.193612983242988951e-02
8.580565627950262342e-02
1.072690606050089035e-01
8.179887900115859201e-02
7.810002107235129720e-02
6.169431238011854890e-02
1.087662439925396879e-01
6.611654372536769630e-02
1.109484947180516407e-01
3.199545946250272749e-02
7.647536046867424442e-02
6.855268919393894822e-02
9.665104200566815296e-02
8.507449210303474896e-02
9.446122860892600115e-02
4.682998802493567453e-02
5.385850299542030428e-02
1.026299648281945309e-01
4.550655715268796947e-02
9.724969022376972472e-02
5.323433884593646581e-02
1.132776183184315000e-01
4.288208267106261018e-02
9.706403722471483586e-02
9.716653230983313128e-02
6.557748116057227072e-02
5.936940276287629159e-02
7.146247520637769024e-02
6.108791283817713302e-02
5.240722207451040116e-02
1.011065066299787624e-01
7.978835729149272304e-02
7.138797102541273587e-02
1.230413464037692639e-01
8.993676452890622675e-02
1.043194904093019265e-01
5.347991788683915254e-02
2.624549807940393040e-02
4.584695494044831177e-02
3.176192431203212624e-02
6.951188279642031564e-02
8.606695178067402807e-02
8.060029674127223986e-02
1.281831535899476682e-01
1.299965444315150098e-01
1.090054422220006480e-01
8.663160749541282124e-02
5.537659993752937909e-02
7.049373105732306688e-02
5.409518167101983604e-02
1.034815941966862329e-01
1.535222849666832874e-02
1.062775217840492836e-01
8.769852119736046281e-02
4.175918197525665954e-02
4.558817210552812416e-02
8.964612452606596227e-02
1.556385960209199226e-01
3.959160192967235703e-02
3.976610233736786737e-02
5.269006648121511011e-02
3.481085169930461104e-02
1.111613955337626136e-01
5.446194384954469725e-02
6.078657829705282067e-02
7.010854120642251441e-02
6.973626856129269691e-02
7.781183102791713879e-02
5.779236869022830181e-02
9.790256803354205339e-02
5.967329642392245337e-02
9.434096212455640729e-02
3.163513905632889950e-02
8.769674777104505270e-02
1.151275624587291546e-01
1.199462664880037582e-01
9.894532340925560332e-02
9.475110808512608729e-02
4.252864186336294955e-02
1.153369500706329792e-01
1.101539998263881132e-01
8.302147625970249245e-02
6.999703448757556290e-02
8.725497398807920135e-02
6.621321264467890100e-02
1.055850563968443040e-01
1.249860676589056308e-01
3.313887914727280809e-02
1.066214757043726369e-01
8.187150792827159462e-02
1.030623816419252575e-01
5.733319910959445986e-02
8.515675690289624400e-02
5.075103245953224013e-02
4.416512475297697943e-02
7.283587023319262888e-02
3.326476832521053917e-02
2.629280606282112173e-02
1.116309587988493501e-01
7.563996850972937169e-02
1.418399337574525465e-01
1.277179996796486694e-01
8.892818546664156554e-02
6.488091902587311832e-02
5.406323069243931106e-02
4.539132402452589199e-02
1.075368807453729592e-01
8.286836970195220198e-02
9.877973264212602800e-02
4.380195492553159292e-02
9.722134669443741051e-02
5.655606888690260792e-02
1.003017156456185305e-01
5.299458678758190572e-02
9.500368325637606470e-02
3.820732057662605541e-02
8.604726129028854309e-02
9.259748397234481010e-02
1.111650288516361357e-01
8.309833501275562528e-02
9.758515108262506843e-02
9.834597629419987441e-02
1.144120716216965317e-01
5.935638982507186745e-02
7.722958398127890978e-02
7.479679832121687022e-02
4.999830239594883763e-02
5.111384517596225668e-02
3.840983913693924584e-02
6.852170481163175064e-02
5.996333477197793305e-02
5.396237755175470330e-02
1.152298212662923454e-01
9.038242179886711580e-02
8.912161926960024405e-02
9.933061509178456316e-02
6.191571417499944913e-02
1.090041725722515203e-01
7.302039853725857121e-02
4.463938970270387580e-02
3.811295399096590458e-02
8.820667073883903253e-02
5.683667900141764484e-02
2.861589668433547201e-02
1.087529119321645477e-01
3.588401478690389501e-02
7.083049652304931887e-02
1.392607567722457806e-01
4.404342073420267761e-02
8.238588916165630327e-02
5.448017880547995767e-02
7.581140559222275532e-02
4.848246951171365782e-02
1.000770044046867119e-01
4.817032103720329111e-02
8.546902528668413879e-02
6.837258787126859749e-02
2.565446153776354543e-02
1.162975474853768509e-01
5.902855221250687817e-02
1.023327568207906685e-01
4.724112664062428413e-02
6.947953199069280272e-02
6.892714886905570992e-02
6.083591350623124283e-02
9.534231779618762559e-02
5.242199280812135515e-02
1.219121235859459834e-01
1.193967718920693061e-01
9.975123797785101498e-02
1.188376830463766659e-01
1.198819788760642074e-01
1.148792019231635042e-01
4.416679555019663306e-02
9.441612459262135881e-02
8.458893543152329331e-02
1.057765390701602692e-01
8.080355588210870466e-02
1.077285420273258465e-01
9.997570856601926959e-02
9.588773663311278561e-02
1.164633747573210476e-01
1.233906516441322793e-01
4.282808647007587538e-02
1.078004664076822189e-01
1.066693057868192129e-01
6.084803573164158930e-02
7.427964858915625523e-02
1.018234875616124413e-01
5.088345211715742528e-02
9.675383488537579735e-02
7.947156345805225786e-02
4.159688202645284855e-02
3.221671523653681091e-02
7.943059864461006481e-02
4.518219204192010230e-02
9.963089479334134857e-02
4.576258995320155870e-02
1.039494764863826415e-01
5.410110165173125096e-02
5.215962805282055303e-02
4.069177723117664569e-02
8.650555536287565794e-02
9.846433131288889751e-02
1.208075027269733259e-01
1.222253965075812548e-01
1.115702370958846779e-01
6.612407763966432483e-02
5.404468525570074039e-02
1.083055373696310553e-01
5.273700444471830090e-02
-2.024730737024300342e-01
5.472206819470775141e-01
5.099724189146630504e-01
1.220849841289907811e+00
8.598575644804830054e-01
-8.492794100537286450e-01
1.053796115550865498e+00
9.654327511453894006e-01
-1.003872298208259295e-01
7.162751396922911740e-02
-7.000677013776152036e-01
-2.143534224237167718e-01
-7.896032601918728799e-01
8.536371073896369399e-01
9.657276634408699101e-01
4.674386973864793487e-02
6.460227914603123844e-01
-2.853186498001203386e-01
-3.381929493393909802e-01
5.643287241481625971e-01
-2.023587555100644086e-01
-6.355163472709535188e-01
1.452670839802427116e-01
-2.626739722330857507e-01
-2.750736539148671694e-02
-4.504265341753302954e-01
1.029747097917603327e+00
-4.881272726845505838e-01
-5.892342738825843140e-01
3.916509945388506331e-02
3.542830719454697075e-01
1.093221123174198173e+00
3.646616590576184369e-01
-3.630676162376382243e-01
-8.551666573227508783e-01
8.378712075135980042e-01
6.746341657159864447e-01
-4.003692834545474755e-01
7.564702138769819895e-01
5.097234700235280247e-01
-4.074698728604049247e-01
2.062113574316355447e-01
-1.302915303966818983e-01
-4.371437486318421883e-01
9.466950832777643043e-01
3.386710085427339090e-01
2.385852017817583770e-01
8.434296073353468870e-01
-7.847351899793346686e-01
1.686488336614573313e-01
4.672266149835799798e-01
-5.332961570643964810e-01
-4.642837202759347304e-01
2.562818760756975789e-01
-1.233145844830455112e-01
1.654616595074376861e-01
1.096592068219325727e-01
1.649197456200292011e-01
-1.707473620603112419e-01
8.509994840500916258e-01
3.128145871934056022e-01
9.588802557106818059e-01
5.639189313755761379e-01
-1.987482160436019607e-01
4.293062269349662841e-01
-1.812448431853743158e-01
-2.147474189017804236e-01
5.761344238218356617e-01
-6.882249077454813957e-01
-3.400108612472506064e-01
-8.182032736681081886e-01
1.032282183866049419e+00
4.457573816947400513e-01
1.849427650333853590e-01
-9.744929553835306457e-01
4.098410190550064724e-01
-6.763364492034018571e-01
-4.012217144114129108e-01
5.557950605460496574e-01
-1.919261683834238563e-01
1.750458189913821072e-01
1.195190306257793433e-01
-4.134016115449681283e-01
7.193494721844074791e-01
6.206597992341283954e-01
-1.554928633473440236e-01
-2.028971840097192059e-01
-6.728669107342525324e-01
5.045704313846255396e-01
9.710680441341315583e-02
1.445725008561180303e-01
8.180495913989838108e-01
1.616149413655005862e-01
3.361492306406220765e-01
1.028956885651770570e+00
-5.788305443711458387e-02
3.097949990956921362e-01
2.314780020926936188e-02
5.941808640435518596e-01
3.508653235395985948e-01
-4.937426399627635187e-01
-2.137906183790325709e-01
3.019527576931588797e-01
-9.166137596573027402e-01
6.168123996397506525e-01
-6.158722412648021810e-02
-3.855033515317943249e-01
-4.156199510352959758e-01
-1.930803026572630032e-01
2.212370909530849139e-01
7.159752275408178823e-01
3.278884365835041392e-01
4.854262191044109720e-01
-7.166652962575088548e-01
-4.546702514082247015e-01
5.815185750151675714e-01
5.864521910535875904e-01
4.945994877704631976e-01
1.749233628178973876e-01
1.830133020029174051e-01
9.512049295805038440e-01
6.964496537757084438e-01
6.716376874302281141e-01
6.956341359930663382e-01
-3.279426916347024101e-01
-5.493159048129689359e-02
-3.077575396013593201e-01
3.399515650488084684e-01
4.625194386558961201e-01
-1.042331430997887193e-01
1.676716315949154656e-01
7.366593959755357579e-01
-7.807487639257421064e-01
8.557521120921681712e-01
-6.963299957169851728e-01
-3.496320463217725272e-01
1.656615695305727054e-01
-4.930694767366104458e-01
-2.693117952738498522e-01
-1.971004778909726807e-01
6.906222251783885602e-01
7.483250477344827178e-01
-6.711485037997093617e-01
8.905404709122987095e-01
6.118745827717028130e-01
4.159066409167033185e-01
2.938746494600580905e-01
-2.867504603366091143e-01
3.856666281084931147e-01
2.253765649495302337e-01
-1.745152466541405878e-01
4.412235254140955409e-01
-2.524203531859871008e-01
-8.980364295301931366e-01
-2.729912271538096902e-01
1.179843339681092285e-01
1.332664005208994140e-01
-2.369409327006344324e-01
5.756381164764001745e-01
-6.847999559019795068e-01
6.116385569201272798e-02
-5.709524346868403155e-01
5.489649461245351691e-01
-3.066620802006412849e-01
2.736154548383291085e-01
-6.086467291042494399e-01
6.273061702135332984e-01
-4.005514994793622496e-01
3.646171606741269167e-01
2.703742903623828631e-01
6.713375587434580183e-01
-5.940438920859360261e-02
9.667927078185764023e-01
-6.681315861917654919e-01
3.130895884142512742e-01
4.701981617384541345e-01
2.240526714643328518e-02
8.954497615761089491e-02
-7.638002904974849905e-01
2.372147067987595837e-01
3.746127820014426291e-03
-2.092430320074545880e-01
-9.624771485625003287e-01
2.321138544764769218e-01
5.306326927083432343e-01
-4.703866560347315651e-01
3.818698536794228882e-01
-2.813153908784343793e-01
-6.349917558882469670e-01
-1.836032386007270534e-01
7.267135572788998576e-01
-6.852683579371418032e-01
-1.652266625241045617e-01
4.762273187450913881e-01
-4.827548693764876497e-01
2.658660979387269530e-01
1.939316625028042473e-02
-1.171924413247529689e-01
9.784555576803066756e-01
-3.572093713117469038e-02
7.772000645436804023e-01
8.538691776242541831e-01
-8.139955510060632726e-02
3.797071910091565639e-01
-8.591051496751189731e-02
1.065381408570901023e+00
5.897635457068817894e-02
-6.428106918343254872e-01
-5.143403167846267721e-01
-3.488752881470751910e-01
-4.893054404574690430e-01
3.904893081146915690e-01
9.695170235518746349e-01
1.376608360099678685e-01
-2.927020627849835632e-01
-4.951334356179463159e-01
7.395494308037998676e-01
-7.948709171481709024e-02
8.560643405699280839e-01
-3.859595582530185864e-01
5.269317905712921357e-01
1.233020178902587694e-01
-6.409796876230688945e-01
-2.930678783365243678e-01
2.348953107205784263e-01
-4.960979580108826337e-02
5.523205815903329263e-01
-9.020608213040690604e-01
-8.184781824066610367e-01
3.576267197547736698e-01
-1.021271957860661744e-01
5.808339453616413461e-01
9.631081928499303224e-01
-4.489974344715415011e-01
-1.473839776585078032e-01
-3.256309407169469261e-02
-2.380884136882760460e-01
-4.014186872426745989e-01
-5.581583306894912777e-01
2.920806904685068206e-01
7.714081112255163353e-01
-1.452658671150537650e-01
1.391766875643353496e-01
-2.806929750351376540e-02
5.085336772626796176e-01
-1.414514952796864719e-02
-5.334258701030356598e-01
3.930805954530331991e-01
-5.079452235917610858e-01
-3.098912522108450696e-01
-5.450562592290547625e-01
-4.231592312339050865e-01
-7.215868322402759771e-01
-5.169374111030333729e-02
2.898842945319010656e-01
1.021716333902464413e+00
3.855208542582809136e-03
5.593983020445914001e-02
7.351016732340416582e-02
9.487944542128284864e-02
8.293316654717880487e-02
8.877824929076913452e-02
6.153323622964592537e-02
7.859539893934720800e-02
1.249045915498738085e-01
7.306599776959704640e-02
8.309630768788239807e-02
5.607244834739308348e-02
1.065435709514996054e-01
1.269761531817150679e-01
1.031498678339781566e-01
3.621166457033285491e-02
1.106017393983934755e-01
8.107294414502033697e-02
9.922712182015044902e-02
9.294308467310744004e-02
8.249922103653126171e-02
9.434163812285899231e-02
1.179975520309637788e-01
1.067721641216157480e-01
8.627496553575052241e-02
1.974590912125282274e-02
5.542864817394824867e-02
1.215260894258205493e-01
7.428102183362191024e-02
1.158506589699997563e-01
1.032180791907229278e-01
3.256033495221620500e-02
1.163665841965964703e-01
9.295675420733962024e-02
6.168093846310497563e-02
1.168530155322037162e-01
6.165865342876758470e-02
7.146058358542808908e-02
5.117646690381043306e-02
8.647672264435164735e-02
7.487945346430632809e-02
4.122311682527985549e-02
5.527126794594940801e-02
8.615481256944988731e-02
1.607353946515088089e-02
1.344009775828291509e-01
8.769146292060164827e-02
5.937025115019952531e-02
4.038207635466455753e-02
5.889177908139637402e-02
4.943536076387286538e-02
7.679312805751359328e-02
9.826054362269229236e-02
6.965259162942187554e-02
1.170784577218941386e-01
8.533148869062626152e-02
1.014547940518543689e-01
6.842695102889921610e-02
1.123353615197876659e-01
5.747131402397306216e-02
7.933075724850664756e-02
2.709235246467828206e-02
7.575788261774084320e-02
1.126518406246223847e-01
5.457930574956909586e-02
4.994175196036751418e-02
4.404664605249104803e-02
5.932266499333951199e-02
8.288439172481980310e-02
4.131411819161202870e-02
2.168611996096651839e-02
5.364122693011962734e-02
5.038516156312741051e-02
3.289220423443729030e-02
4.099535050468771508e-02
1.354244819288555890e-01
7.316696691821904242e-02
1.104252090373597506e-01
1.007746403731641233e-01
1.006376899289495863e-01
9.767424739393197608e-02
5.975564516768655521e-02
9.682445299720607301e-02
6.578432582379571680e-02
1.251464458591672324e-01
1.162890135167302247e-01
1.392062966315912587e-01
6.390540863481299072e-02
9.595858097030475486e-02
6.555263626509030828e-02
7.547692948015334580e-02
1.095528764078665535e-01
5.622127385128313642e-02
6.012744867928777187e-02
5.006766344612556541e-02
1.146807402458938918e-01
5.737455589808438533e-02
6.219424414411764412e-02
5.669479702564579615e-02
9.760547062629289228e-02
9.079474940288423390e-02
6.402523471614972317e-02
4.015348240204599101e-02
4.482012968658054958e-02
9.312982516504483832e-02
1.047462472042852560e-01
8.572464943237324830e-02
1.363199093407630735e-01
1.061741041677406461e-01
8.979629965829155624e-02
9.399518344413136661e-02
1.448978683317809768e-01
7.680987649203509238e-02
5.966884377647013044e-02
4.815120149934948995e-02
2.916703732609116084e-02
1.116940904892798764e-01
4.900497648925364325e-02
1.172172021604163950e-01
7.491791839903857997e-02
1.164278645916574928e-01
8.612835020854993362e-02
4.261565540488001375e-02
9.920633618522012309e-02
1.320150812298608312e-01
4.087423306095900460e-02
1.367165708920067557e-01
1.037007453643921800e-01
7.354927864915745961e-02
6.254474033716518611e-02
1.161997854085699416e-01
8.378645400102063823e-02
4.555340979760683084e-02
1.161766930286938365e-01
9.737726656362233335e-02
8.521093031243479055e-02
3.474388354060113648e-02
6.474588860865282403e-02
6.368060999076238793e-02
3.567170844434282284e-02
3.479406642706925346e-02
1.121978721511619204e-01
7.337793959716393255e-02
1.056128592203224303e-01
1.213396467840105186e-01
1.099966350015052358e-01
6.061130400626840026e-02
7.006541837662970396e-02
1.148588853778738095e-01
1.103159658056734049e-01
7.150518603191004241e-02
1.169095288323915155e-01
9.007935529716795675e-02
7.684189478839253962e-02
8.811515100120151378e-02
6.868954085709425006e-02
4.675666197122802653e-02
7.649340857295157392e-02
3.589861631756395555e-02
1.153391998945074159e-01
8.371985735365121417e-02
1.679417186792424299e-02
9.572928142208624036e-02
7.650926767409250984e-02
8.622126325267752411e-02
9.768265485852804797e-02
7.691477538587998541e-02
1.342019518181049864e-01
1.032530932457489947e-01
1.349798151725990214e-01
2.928377192193126061e-02
5.148630389701159410e-02
9.523228754639519178e-02
8.239105143575722878e-02
6.040356500225828318e-02
1.097960977761811979e-01
6.552916063664414315e-02
1.312496043481381491e-01
9.242462167596811329e-02
9.973252154705583572e-02
8.045972328173425780e-02
4.764596974527576800e-02
1.176287689174950329e-01
1.011612399586930694e-01
8.651403966591687811e-02
1.299888297704483164e-01
4.807722425117809395e-02
5.339322323309751706e-02
1.059080670294402643e-01
9.438218621669274000e-02
1.231637917238095348e-01
1.162523043390640692e-01
1.114273007329101006e-01
5.384311700973368892e-02
5.860838618068380662e-02
9.359965927959493226e-02
1.036230075010748514e-01
5.866211967042691405e-02
8.872230647987155994e-02
1.053291872164763276e-01
7.335571544017854828e-02
1.216730470207715992e-01
1.099650207156041143e-01
3.499562616704035567e-02
9.166246258072745234e-02
2.757923414511720406e-02
7.062671381975026141e-02
8.093728180509550396e-02
7.498574127706729431e-02
1.042900100962400184e-01
1.085576214311161636e-01
1.227187172958191658e-01
1.153551822821008294e-01
3.908221931724982501e-02
8.631977845341914923e-02
1.006690325093030913e-01
6.725405618778128314e-02
6.487230851466596615e-02
7.175267179804073470e-02
6.965743425606021888e-02
7.776653648262218943e-02
4.708656165144554234e-02
5.149177866810955573e-02
1.398729412329504096e-01
1.292902384584505571e-01
9.356572503523498396e-02
9.181686550617695897e-02
6.143764885306145923e-02
5.400555939091902791e-02
7.844746290905942054e-02
8.828928728436442885e-02
7.234231436326044040e-02
1.252214540220636108e-01
1.384912466807579901e-01
3.470782922009235660e-02
7.363144411134725509e-02
8.775344543105192963e-02
5.606374714562246259e-02
4.926290387872101634e-02
8.366712474706794467e-02
9.297843028943418575e-02
6.924351663576001903e-02
6.133810403099720227e-02
9.914406229256152170e-02
7.589506104300615397e-02
1.263799240776148358e-01
7.575834922302680796e-02
7.968053442256629870e-02
1.045514851055410754e-01
8.021526376688140059e-02
7.528202420518204097e-02
5.419999194732602610e-02
9.090587204954740652e-02
4.429774544886202342e-02
1.210723077544451354e-01
5.886253141061789651e-02
3.846086501465422608e-02
5.027281416021173177e-02
6.823894754839357479e-02
6.393010579703645169e-02
8.812732992478418403e-02
6.510876608797147580e-02
7.417328760773896079e-02
8.803442076355327828e-02
6.618614106831097188e-02
1.289181841666960371e-01
4.004720443089598153e-02
9.262977746045411576e-02
4.977338983066550288e-02
8.148382799133974119e-02
1.325383305131539458e-01
5.123071602004026365e-02
8.930663678507848313e-02
9.485277422584935392e-02
8.253282336447013978e-02
7.136112094553834218e-02
1.338694599647324013e-01
8.121829946866593319e-02
6.958645579465481956e-02
4.912627196805061103e-02
1.196610263940757479e-01
5.884576614201830758e-02
7.085599768470511595e-02
9.618292430592853548e-02
1.146074547165091412e-01
6.315095629123319843e-02
6.268395085877019601e-02
8.296988982263221735e-02
1.006316683416217383e-01
5.781160272546495560e-02
8.004192990921142614e-02
7.220720843673142375e-02
3.924109170317578721e-02
4.532781866925429670e-02
1.072779118631171369e-01
8.507431592305994550e-02
4.772513634083268980e-02
1.007431116698654927e-01
8.500373947500730609e-02
1.185866744588861404e-01
2.624420635868621177e-02
8.285005213682918035e-02
1.180545349502049590e-01
6.284917643017171041e-02
1.012545814779013953e-01
1.149964820396823378e-01
1.109159457159996642e-01
-3.729959067159503705e-02
-5.976225080539879775e-01
5.529305447165655529e-01
-7.899285625401289979e-01
-4.938160550939629800e-02
7.169621385537905400e-02
-4.201442933135513536e-01
1.143028230056890360e+00
-1.748344989209184852e-01
1.223303657611482693e-02
-5.550167053293917352e-01
-1.322983359359795885e-01
-7.049772270977622268e-01
6.514783561839229686e-02
7.725679611353295506e-01
3.446104305964577397e-01
6.573338725951356487e-01
-1.245517019236165035e-01
3.311471792186202467e-01
9.418285541228552660e-01
5.077432407505744205e-01
-5.959258232240973729e-01
-1.215253433439411751e-01
-1.539356394766129565e-01
1.435867514460022476e-01
3.376884179791289076e-01
3.106946662076446319e-01
-1.948486764260381754e-01
7.414416307358354663e-01
3.096788757476617859e-01
3.634547569220648033e-01
2.758958069256092771e-01
1.001828743369411523e+00
8.423940060980100730e-01
2.798257655959947021e-01
-7.608170791545122436e-01
7.546724196615457458e-01
-8.855933357057275968e-02
-8.686514743656832682e-02
1.288993325379536592e-01
-5.300096822076381109e-01
5.345985189300058726e-01
4.983203611985992931e-01
-3.731712955139563359e-01
-9.527430744035004784e-01
7.470141906545977317e-01
9.433575892084555825e-02
-3.559949697868382001e-01
6.408067052523913620e-01
6.135975440556382665e-01
-2.866483510474821528e-01
-2.815381331859991287e-01
-4.266045931088293663e-01
2.572970191217321262e-02
6.533596057769398557e-01
2.455837702598252514e-01
7.732200640046338336e-01
-7.318614752504503107e-01
-3.065272227617076295e-01
5.996561158106654688e-01
5.082968696692691246e-01
-7.966699766808430505e-01
-5.204549406363857544e-01
-5.055956882175519640e-01
-9.168800896688953372e-01
8.533159970068441291e-01
-1.198810307616457599e-01
3.113350366515255652e-01
3.342372743198882001e-01
9.337608363389215960e-02
2.650952071168468649e-01
1.835574059274208691e-01
-2.624293657393066970e-01
-6.297892046034008207e-01
-1.996724536285613139e-01
-2.223086726356968135e-01
-5.350917643983308380e-01
6.867516242137173821e-01
9.655366747917084602e-01
-6.568280872740389631e-01
1.513957806485675961e-01
-5.263849118353699508e-01
6.551001962696337833e-01
2.773791801649157507e-01
-2.987543642288038592e-01
-4.821112298248586003e-01
-2.544836613753756558e-03
1.845106695702103394e-01
-4.218774232708740607e-02
-1.749548242048909186e-01
9.206929022783064687e-01
-7.007644394396627119e-01
-3.532219887177837636e-01
-1.494123463226806059e-01
-4.467250336190668747e-02
5.340730112022744613e-01
2.174867964240953799e-01
6.396239724992515419e-02
7.819972578389239315e-01
-1.663861084052724870e-01
-1.812140661844676426e-01
8.209803394674217714e-01
1.943426822647478236e-01
-2.342276486169192207e-01
1.495674672613508255e-02
2.614628951498007559e-01
-6.766828512311137134e-01
-9.530232332009137552e-01
-4.945186816626260251e-01
6.493617875018907748e-01
8.957145138520415939e-01
-3.455691760841432258e-01
-2.675214437566216796e-01
1.733529056597626072e-01
-2.906172282896481995e-01
-3.728115907614306668e-01
-2.057019843631733291e-01
2.262910724169039933e-01
1.153807403606259552e+00
1.044934370727057249e-01
1.610291930289632911e-01
8.656826720492969418e-01
-6.502426396417957388e-01
-2.919073327384918981e-01
-2.764567834421903791e-01
5.096810215401690325e-01
2.745097121785449734e-01
9.998689945518582367e-02
1.150791305504386686e-01
6.741554924076632593e-01
-3.782027747701697390e-02
9.071434687382083917e-01
8.690865291395558634e-01
5.172121715703772438e-01
-2.586410926245781283e-01
9.464666508776996556e-01
6.517556520439110601e-01
7.712981128359188698e-01
7.926093285873905270e-01
7.205162381448126929e-01
-7.076011085739802864e-01
-2.988155021475780715e-01
-6.872149572369664616e-01
-7.361904347051385633e-01
-7.787759553356194964e-01
-4.342125301789542813e-01
-2.895087158652620563e-02
-3.091805685773122980e-01
-1.875348187207458162e-01
7.058895154093204338e-01
-2.034884259878309842e-01
6.879332653725317437e-01
-7.290696384067589519e-02
1.088444065076857731e-01
-8.118977537893659058e-01
1.060560592423320236e-01
-7.772924293042844379e-01
4.669616499623416850e-01
-4.235577913509153136e-01
1.015779166772784237e+00
4.431732550663627368e-01
-1.329722358533042548e-01
-1.036103529844915272e+00
9.918118646010335437e-01
-4.103014653820551971e-01
-8.379864652638890909e-01
-6.660183285941674580e-02
-6.340060104542828701e-02
4.268584326785706540e-01
1.200768531114383836e-01
5.391799419253490155e-01
6.713966491587282093e-01
1.317149014273102381e-01
-4.410048940549667895e-01
4.058724118358924410e-02
-1.091908166749170628e-01
-1.015973070860026056e-01
3.451345999014691079e-01
2.391127207868546378e-01
7.901997266474174442e-01
-1.125881960128711334e+00
-6.008165778464165108e-01
5.383430956957412361e-01
-8.493535230706479311e-01
3.095556485756368881e-01
5.931033824607031546e-01
-7.718637790214892824e-01
5.753708727439327264e-01
1.057497825077152287e+00
9.892896234618925311e-01
-5.291993650784982961e-01
5.434348050598506452e-01
-3.396400662354842614e-02
3.964214862145976626e-01
9.289001337338044229e-01
-7.026663817269723777e-01
1.039204180821386547e+00
4.034148328173530751e-01
6.188278357489328252e-03
-6.915935167547551110e-01
4.031802314907977358e-01
-2.737741892113647602e-01
1.307828516231007709e+00
-2.052460973481165241e-01
-5.941683988644237413e-01
8.940061171914723825e-01
2.029235536643458071e-01
1.430716192214702420e-01
3.911730145659743085e-01
1.538771756565740223e-01
9.252639746410773469e-01
-5.108167892958929146e-01
-2.582731174943487806e-01
-2.537631166393704008e-01
1.324926611000603938e+00
-3.383665726080936076e-01
8.443108406851097536e-01
-4.224702668711379228e-01
-5.256369857650314836e-01
1.111501387498842613e-01
-6.863636545885070106e-01
4.391292988901712713e-01
5.517913133256303615e-01
9.816740264862926502e-01
3.827000777487500893e-01
2.040967295999324138e-02
-7.057196625896680064e-01
-1.309072340755411124e-01
-2.454478257953328912e-01
-5.698235491717354995e-01
-6.354263576186691687e-02
-8.004431752347188622e-01
8.205203072827270683e-01
-3.444508148755023313e-01
-1.730217761511061714e-02
3.948341874670359686e-01
7.806954538882792116e-01
9.026683905940687813e-01
-1.255664219860667397e-01
3.412002451804960756e-01
2.631341463613274811e-01
2.964588234333053740e-01
-6.510952259210971427e-01
7.493795761101851305e-01
4.944862660431496859e-02
9.007715716709682185e-01
-5.053160533407115018e-01
5.949050646700025924e-01
7.931831513542999534e-01
7.628904863439986972e-01
6.840022503789484620e-01
-9.324697370000945007e-02
1.526327778347719988e-01
4.527989781755766829e-01
3.666183298181301398e-01
-1.178915135260774905e-01
5.244209781054719466e-01
9.831796442035614647e-02
8.615310656610560003e-02
6.376570937534273287e-02
7.923913094409067159e-02
8.293897614836880094e-02
1.114890089281946467e-01
7.923732714129848309e-02
9.114444168253227341e-02
2.910910247595166825e-02
8.969943860999364874e-03
6.602629027914254378e-02
6.869577488516145913e-02
2.967820869484540450e-02
9.540266488428300606e-02
6.934407822860989834e-02
1.217819728173836769e-01
8.705423720219347683e-02
1.019612733755878992e-01
7.240705606557948371e-02
7.172618256970791917e-02
7.070900548137239172e-02
1.274897834190262258e-01
7.285958187276722620e-02
1.007904988537911412e-01
9.808360957493446330e-02
1.178474752992150626e-01
5.729877112425174612e-02
1.294407223372216753e-01
7.894400162930233222e-02
1.226698840120349354e-01
1.449798010608306931e-01
8.205514764126473071e-02
1.106229369236095827e-01
6.692475229030937778e-02
1.004125651820345494e-01
1.052378292182497704e-01
8.520459624844620161e-02
8.462832937387201881e-02
1.954306018644896489e-02
6.552936687972094054e-02
9.012738040661978645e-02
1.009326354504789525e-01
5.398956647324860275e-02
7.951103247136361019e-02
5.126771154546701237e-02
6.784753896991251032e-02
4.806286309065520984e-02
1.122273963517636253e-01
5.281883375622402343e-02
9.383082595974239631e-03
4.694341548939792719e-02
9.025162264164511561e-02
1.311209369994172369e-01
3.336014790576411621e-02
4.698676708074584624e-02
1.077327290216118366e-01
7.954635891002721781e-02
1.139761642014289061e-01
3.059107090171301821e-02
4.518442573090133280e-02
5.547636976471667647e-02
4.538229003105388737e-02
1.185904563423293145e-01
5.144481923146632801e-02
6.516346197698383302e-02
3.497750034845278216e-02
3.529586146382023004e-02
1.157482828851159051e-01
3.896875192513282044e-02
1.072412489375780542e-01
5.838198777379795257e-02
6.968414955076206174e-02
1.123113997551555693e-01
6.907796522337017464e-02
7.666156433241498591e-02
9.897437079543532079e-02
7.355578340919562141e-02
6.405788815330024089e-02
5.617566669340602614e-02
6.978748559889627612e-02
7.766478212372310286e-02
7.934493050169250106e-02
1.350774071592424075e-01
1.291161212900950594e-01
9.537516646374441520e-02
6.741584121858809620e-02
7.597933735481442186e-02
5.410451166177702997e-02
1.209160312364080531e-01
3.006632558065331848e-02
7.927367132973513197e-02
3.766379024723189028e-02
7.263531851416882290e-02
5.067166154692225033e-02
1.150667560512936005e-01
4.024706909747961109e-02
1.038425092897900109e-01
8.450762621536000996e-02
8.259873834362201073e-02
6.999971695912955705e-02
3.935973815879429544e-02
1.124865948703770574e-01
3.556987372723761226e-02
1.119555353716892437e-01
1.029856348911041414e-01
9.182611801453888223e-02
8.296587157416439318e-02
1.071203926815686575e-01
9.926475223182608387e-02
1.078859994557420654e-01
8.311648789009876137e-02
1.066841731183011677e-01
5.065216343232090135e-02
5.790401337380883529e-02
4.718788469683271591e-02
9.787164070797491067e-02
4.995221997707118694e-02
5.891438110795220451e-02
7.780888924721011957e-02
8.492456011434448837e-02
1.104171419004190136e-01
9.194560748967214869e-02
4.496789937766688255e-02
8.221254942929742682e-02
4.371326244585099080e-02
8.655332902522087923e-02
6.079526796110643755e-02
1.026677816019297973e-01
8.303412343036836729e-02
8.370489899761135444e-02
1.050103865888866728e-01
7.881553874172286811e-02
7.956644669518948831e-02
8.618077712828618731e-02
1.339708001712179852e-01
7.381256484196511980e-02
5.200609937213376832e-02
6.212216455021985634e-02
5.262479804670421035e-02
1.081481741048006540e-01
1.165500421638243217e-01
6.624381952505870030e-02
9.350888742605449611e-02
8.331748108000769371e-02
4.771411066170547915e-02
9.821677711834962687e-02
9.706266963357308708e-02
2.643133775731586546e-02
2.852018742025741460e-02
2.700418643153303100e-02
8.844775839355165092e-02
5.954743295952914794e-02
8.065489255347056685e-02
8.200009523709321513e-02
6.432668137742560133e-02
4.086713404818213824e-02
8.134666711174426412e-02
5.831643712915191013e-02
5.851970257759703947e-02
7.479530217869172215e-02
7.877424615078365555e-02
1.048009304438689282e-01
1.034064110441967194e-01
1.133450932392273403e-01
6.553646864698221830e-02
1.331686052892343264e-01
2.004138482501040264e-02
5.200661373129698839e-02
3.543832401453524128e-02
1.165476278583174874e-01
8.844349557729654088e-02
2.979444683671602853e-02
9.572371648532566890e-02
4.616087654700316151e-02
5.586640744501044503e-02
3.335179709382052327e-02
6.777763226472165170e-02
1.073393208261342185e-01
1.249620634999237812e-01
6.221934128701966937e-02
6.249894314982187837e-02
6.480129186883168413e-02
6.818722683035670362e-02
1.110378601184643238e-01
4.708938574471088767e-02
6.169009918441183127e-02
1.029219871978246242e-01
1.138858898009706133e-01
7.474211396773311478e-02
5.429674458659599495e-02
1.184052506019941664e-01
1.201064388509141684e-01
4.989837393069027072e-02
5.386777814846323287e-02
5.313717874482557640e-02
1.056646978462888187e-01
2.689407458821917174e-02
1.161613252672219210e-01
3.765762268556891584e-02
3.788191800772049145e-02
6.140984123327168642e-02
4.854030939201983696e-02
1.044133395504455442e-01
7.630199480316793292e-02
9.992332563850801763e-02
6.311032315654190039e-02
5.355300194051934581e-02
6.976914316459789656e-02
1.240568446835864369e-01
9.366889972225117544e-02
3.932861030277478437e-02
6.451819589199121741e-02
5.303744504691590422e-02
5.688488710653014091e-02
7.029221275299001037e-02
5.052538779037727551e-02
7.776397411161864448e-02
5.304907602036325331e-02
4.324672962605052851e-02
5.444686112154838165e-02
1.260732579608258852e-01
7.227898136300700549e-02
7.155548383231419285e-02
1.111691482775510192e-01
1.186754115355673489e-01
1.130038111206641965e-01
5.503138771730223255e-02
8.274954662805905636e-02
6.237683408760363868e-02
3.779897255722246274e-02
6.219696679100824438e-02
2.729666158637104878e-02
4.832378528109067262e-02
5.734581417823740590e-02
7.559682084356529608e-02
6.253063891280145892e-02
5.064876378866038642e-02
1.202561155882964083e-01
9.577174160773151146e-02
1.233431150229341577e-01
1.034333934803557675e-01
9.349722498495173506e-02
5.474926078284117481e-02
8.044244495966888786e-02
8.127835049616574659e-02
1.099508479938158118e-01
8.725696593220795549e-02
4.957723957724723823e-02
6.517249847626103987e-02
8.622163532715540479e-02
7.338343537918710913e-02
8.313049783777523571e-02
8.078399196789692871e-02
7.142955550925197961e-02
1.031233124508111193e-01
7.110385601689828139e-02
6.028353686325169103e-02
7.604050493430557223e-02
1.475939115431194881e-01
1.472825095138137752e-01
8.799647710598160200e-02
7.999141684526195339e-02
1.041255949681632875e-01
5.727373310330309553e-02
1.320229618315828801e-01
9.345245333489962669e-02
4.845325000895570056e-02
4.028683308231623128e-02
6.827013753883376390e-02
6.360206623778166812e-02
6.541024001062697990e-02
3.133692037626749360e-02
8.812674782193971601e-02
9.283055322642511098e-02
4.156969680358827551e-02
8.384483993235768151e-02
5.200920372236726014e-02
6.737326746539470945e-02
5.302140065401982072e-02
6.954212138702768609e-02
7.424768761053471278e-02
9.254633867658966506e-02
9.239526221107059734e-02
1.051373082927754832e-01
7.715541576624045106e-02
1.132390164327606308e-01
9.799972701536424635e-02
1.299200070425699516e-01
6.137380150482393132e-02
6.151109546734051525e-02
5.003111936554383021e-02
8.389986364590873436e-02
9.348792112221179784e-02
1.917656741012497418e-02
5.659422331387477939e-02
3.654395102736240214e-02
4.179478734994485079e-02
5.430609103963940365e-02
7.544766577769043692e-02
7.843009383529740697e-02
1.038406792797687966e-01
3.074654799438029940e-02
1.169778461738205377e-01
8.091290367360892688e-02
1.066343146528129886e-02
6.253961750455874768e-02
9.128020855932328370e-02
3.538966059791147090e-01
-8.942553136831861149e-01
-2.473600449954490577e-01
-2.037709426055886175e-01
3.118611738014056556e-01
1.127071520447576469e-01
7.614112256678122748e-01
-5.584581186425601196e-01
-2.606836874734459464e-01
-7.597524479077013559e-01
-7.866860440859786419e-01
-7.332397965280756935e-02
-5.207704341874039855e-01
2.541795458467971391e-01
-1.012646045989046950e+00
-2.532596179138280057e-02
-9.973480458748283928e-01
5.989468943516147448e-01
-1.523123799000253298e-01
-9.742394329304036038e-01
6.396158018546057589e-01
4.153339490431451342e-01
-4.322839069302504278e-01
7.585618675969966196e-01
-4.226672996935926241e-01
1.619381799849396453e-01
-2.834081386271799508e-01
4.050699830604639340e-01
7.643560176642032189e-02
-3.198676603206625224e-02
-3.395668880928230382e-01
5.285430345987871537e-01
1.085134099659910145e+00
9.439249498584817433e-01
5.648041776570015271e-01
-4.138045416177421054e-01
-2.023630410494158260e-01
6.149549924445824045e-01
1.929698948325663313e-02
8.634237839274282456e-01
-3.357114367980734149e-01
-1.351360607932554359e-01
-6.485166738137446707e-01
-4.430271578416940526e-01
-5.783834821150847239e-01
5.523607001346646506e-01
-4.403248162272223043e-01
-3.195729591511166645e-01
3.323939222846154506e-01
-1.088065608698363385e-01
-6.701203442815968359e-01
-1.545257775430855518e-01
7.957389329687004631e-01
-5.297824729095678142e-01
-5.045767810210728399e-01
4.632549586774887818e-01
-7.366217440835353125e-01
-1.620649176390817903e-01
-7.377283439956014433e-02
-3.935730811610761437e-01
8.153487186483495686e-01
2.201268657406194040e-02
-4.735041987969681454e-01
3.113743374286575549e-01
-6.945846360565215427e-01
-5.220471683792085038e-01
4.914401604556087322e-02
-5.944605206481184956e-01
5.057845867634247483e-01
3.374196442058422507e-01
4.310552593151365519e-01
-5.084912649369006665e-01
-3.850563728340300473e-01
5.806016467299008887e-01
-2.686942465982419814e-01
3.858641994200340264e-01
-4.107929022830850152e-02
-4.767326713258105975e-01
-2.904611625688932608e-01
5.938543059543973657e-01
3.607093061271948731e-01
4.700176096662559977e-01
3.455909571684052661e-01
-2.927578243753312104e-01
3.363635662145093019e-01
5.949253577921588265e-01
4.357962735472020177e-01
-6.065709159325534117e-01
-5.523626240530697951e-01
-2.307038347666348910e-01
-8.864523563073161139e-01
5.308456072686524863e-01
-3.934209030065481671e-02
-3.008800996242224635e-01
-3.249743385310403521e-01
6.855793583806437663e-01
-5.587486099560093900e-01
-8.525936239122520188e-01
-4.167322954534570245e-01
-2.387386018155873146e-01
6.163294028076145015e-01
-1.829232466617955744e-01
6.075120773091796655e-01
6.679463219885134473e-01
-4.967907491902412986e-01
1.430000353666812662e-01
3.319441346365259449e-01
3.523235238741923014e-01
2.893141864775800598e-01
2.965728377785774583e-01
-5.246897383380168256e-02
6.778220991570857445e-02
5.255256132678706726e-02
5.641521669523489324e-01
-3.597395190464651171e-01
6.170287500525419022e-02
3.068059090046672543e-01
-5.186243714037176433e-01
-5.066074656068542126e-01
7.532563687585647205e-01
3.238411916073220542e-01
1.002737091187152041e+00
-6.252302149646979945e-01
5.605223356542011759e-01
-9.902766966950734551e-01
6.622423304808887634e-01
-1.648234177591754723e-01
4.298370801861388091e-01
-6.873513452500574772e-01
3.034182609555749477e-02
-7.773773253232217906e-01
1.049715377636211810e+00
-5.588217063074727431e-01
-6.926890669630965114e-01
8.107233470543485643e-01
2.994161694812124130e-01
-6.089434857693667436e-01
9.532102785485005447e-02
-7.821055553037811192e-01
-5.889019590603830068e-01
6.056760585323653912e-01
-6.447004291473121818e-01
-7.230979634692107361e-01
-5.792649465037360557e-01
3.300583675518725668e-01
7.452825566615162156e-02
1.062517486363021346e+00
3.791717084353032896e-01
4.364280309969912341e-01
-2.531623701047526764e-01
-2.298318208621404068e-01
2.206896276647815347e-01
1.719376872169362525e-01
1.656962334059672304e-01
-7.039683687919652266e-01
1.162885108819791125e+00
4.717554707841601913e-01
5.577557541688824561e-01
2.413706519557943520e-01
-5.107811407365475675e-01
5.088359824222620231e-01
4.036129125197175649e-02
8.823442258416875905e-01
-4.944675685000523568e-01
6.357417990750401371e-01
1.084326640786199836e-01
5.722380844205944284e-01
-3.633096262808180321e-01
5.472757805871685255e-01
-4.057558519766230609e-01
-9.126762492077424849e-01
-5.308725308211235117e-01
-4.424096451065679947e-01
-1.381589838041692719e-01
-4.110758912783711860e-01
5.682522107570155134e-02
2.669039795992592112e-01
-8.390666971736813196e-01
2.009251919951306753e-01
1.304471946405418303e-01
2.321093570461754130e-01
-7.698363825283864870e-01
9.036097387649596469e-01
-2.681688055682381056e-02
9.278523180129586434e-01
-6.841232557918167645e-01
-6.149429454781502047e-01
-3.217114918476250973e-01
6.436431128604226393e-01
7.684018453597830645e-01
-2.653565745745894988e-02
9.325164152483627067e-01
3.752041815306461636e-01
-2.465966172938347800e-01
6.203315753642626440e-01
-3.290303685645420417e-01
-7.172026591436478915e-01
4.084146972517728180e-01
3.271541262469320754e-01
-1.970646756371038089e-01
-2.159228485493144001e-01
1.304479425719781149e-01
5.845203497550657268e-01
-9.085295980263906335e-02
-2.168313326337895641e-01
-3.755816023377623880e-01
-7.970730368871588034e-01
-5.090929296756461220e-01
-1.631543691509618754e-01
-1.549288588993219806e-01
-4.669861425820872602e-01
5.175502120108660398e-01
8.715776731364772711e-01
1.575384368448216332e-01
3.367925982463331747e-01
-2.223871331839342158e-01
1.938957031352241955e-01
-6.888283995994451958e-01
-6.835643754157633145e-01
5.484396418937970141e-01
-3.256928930574256031e-01
1.817153510348957224e-01
-1.853416636228940317e-01
-6.867588421407826438e-01
-1.133746757064005295e-01
7.091359662617541249e-01
8.546166015328870991e-01
5.740664168879795470e-01
4.772621022240977617e-01
2.290279351744367031e-01
8.473930011990151723e-01
5.208643393665402660e-02
-7.296068162169793148e-01
1.392214546130873698e+00
-9.707119304462560883e-02
5.910641120613498861e-02
-9.065726825628952490e-01
-5.862257087423966562e-01
-4.858160265309093839e-01
-5.754482829975994251e-01
1.005668453466163959e+00
-1.012170976626926455e+00
-4.703451699734215175e-01
8.582631819093852754e-02
5.273079488940616288e-01
2.925699857176659036e-01
-6.407542255959123301e-01
2.471748044319435345e-01
-3.059313591064228288e-01
-1.727556998956208123e-01
6.946717257877962348e-01
4.951500573427535801e-01
-2.628858281755404036e-01
4.353841936939542023e-01
-1.864209237394984786e-01
-3.661417866488446693e-01
1.193323715277388036e-01
8.761474928648343985e-02
7.939725629755994829e-02
9.974028272890993196e-02
7.223572846520234791e-02
3.917497117900559100e-02
6.544810771130529781e-02
6.510705517656185937e-02
7.037291338433111776e-02
8.236101905746467944e-02
8.658156266597161199e-02
1.303752703641040955e-01
1.480260863532770477e-01
7.915011113323856817e-02
9.433394067098360702e-02
1.146988534142586030e-01
6.728953256990533038e-02
1.144423137542241453e-01
1.041832640724502795e-01
7.278842734842168316e-02
5.717663595617310940e-02
8.994501718404394885e-02
3.577740209509117780e-02
8.474216190234191981e-02
7.978839878953934706e-02
1.219254606754328896e-01
8.040304717138463397e-02
1.129498172104479170e-01
6.151047051946573196e-02
1.196280568569936115e-01
3.640236475580450881e-02
7.097865608061069975e-02
8.390658643374304670e-02
6.213486047180974414e-02
5.179747404772495900e-02
5.639311361688408020e-02
6.367109875310902889e-02
6.179324303077603220e-02
4.118579793165620673e-02
8.334559407424654842e-02
8.573992564063168120e-02
4.662742889973461868e-02
1.000055469645369788e-01
7.106722840311781308e-02
7.693335449730039077e-02
6.627359854742480294e-02
8.018521459068805868e-02
1.231869858943647478e-01
5.506716985066090891e-02
9.234899137352788057e-02
1.061569289050406512e-01
8.487334644846594722e-02
7.735733064401222048e-02
4.641959731159876756e-02
5.400134152461420062e-02
3.620347259627053338e-02
8.069570338733469961e-02
7.647650782297307770e-02
6.698491366473217912e-02
7.605509436483764985e-02
1.170485792332271874e-01
1.120290318083211889e-01
4.324811874457943489e-02
1.019348208819663565e-01
8.951534842430501626e-02
4.115845295686523103e-02
1.157687125697929725e-01
6.460101239459055400e-02
5.141910894198589016e-02
7.259335411114810344e-02
1.066210302155711082e-01
8.324058517480389940e-02
4.352218592623961768e-02
5.831661187750627334e-02
9.117817308196529691e-02
5.165641118902949275e-02
9.814057943603965439e-02
3.009232507071302187e-02
4.608938219580614726e-02
8.389444695710569777e-02
7.752228633606322861e-02
1.303434259198430478e-01
7.080036055163316244e-02
9.200296993972630066e-02
1.067706123748164426e-01
9.139146683759291623e-02
9.320595478925856880e-02
8.168803999630178114e-02
6.424616863868810868e-02
6.709620269300475837e-02
6.229949797443462556e-02
6.071523610840848240e-02
5.919123569698020448e-02
6.523860552497331988e-02
1.086080829769529299e-01
5.922122123995399862e-02
5.322742755118262115e-02
5.983753592203831795e-02
7.203940855183843528e-02
9.150624554786883358e-02
1.092449631613391231e-01
9.786312637488570054e-02
6.945629468754592473e-02
6.243867673897373488e-02
9.794765822348529272e-02
4.664908627784342815e-02
1.344363999508623175e-01
8.980902738552151710e-02
1.074928850744622105e-01
8.165813292626940278e-02
7.191482442967334077e-02
3.930953799000180826e-02
1.223835973672405680e-01
1.208219171849109486e-01
7.191047050399587692e-02
5.709480979854120869e-02
3.638462566421602623e-02
1.001768830746330025e-01
7.777753427122217900e-02
6.825715152376461703e-02
7.596858797691907750e-02
5.604763865973153014e-02
5.558678699883750490e-02
1.299420479194831057e-01
6.091850292152130308e-02
8.953024184194205426e-02
1.275125974384636596e-01
4.178550865953901267e-02
8.803912597494298331e-02
8.405821678403735397e-02
8.296490688459053076e-02
5.789381058326435736e-02
8.656824767942151999e-02
7.510340999261556905e-02
5.462690587123555930e-02
1.225521968029199410e-01
5.023754644986644369e-02
7.367358428961098826e-02
1.312353128850110295e-01
1.044750784149039990e-01
1.866945570519933789e-02
5.099543919145706899e-02
1.283127067811700162e-01
6.802551489251612571e-02
9.436522942003852665e-02
9.670142132975910465e-02
5.315647047427608102e-02
1.173747494138129288e-01
9.176294000602620848e-02
1.266599702813713813e-01
9.871268217666458178e-02
9.812246328302277887e-02
7.334035121597205775e-02
5.211039655431266848e-02
7.725906683531934271e-02
7.997965090686004475e-02
4.486246353276297782e-02
6.020271285538293660e-02
1.098460153764450886e-01
1.307927512981854612e-01
1.129952886671423823e-01
9.386079495670314465e-02
9.796922149403260172e-02
3.680360895760768219e-02
6.618045700257987884e-02
6.963707302752082662e-02
5.081702362731630590e-02
3.843201174913919715e-02
8.622062141200036167e-02
1.050801004414119583e-01
9.545368607995564914e-02
1.248245237504691380e-01
1.241256006442528481e-01
5.041212611162633472e-02
1.041363587189594597e-01
6.074920652581949909e-02
4.609944374587789800e-02
7.017622334428147424e-02
6.266702517245995030e-02
1.220968861981686082e-01
7.782812340953930430e-02
7.680954176350589246e-02
6.082703364396131740e-02
6.246352991232451829e-02
1.231902432565015193e-01
1.067425924408176435e-01
4.822583878670302915e-02
6.123013947855296402e-02
2.914243626203356918e-02
6.353169433391836485e-02
4.374323225140286375e-02
6.205611960135998251e-02
8.126550400224306914e-02
8.786330440476852743e-02
4.551244415784540948e-02
5.657597593844185951e-02
1.190206950398626645e-01
3.130724984019851026e-02
1.022091271772360838e-01
7.666134299624632886e-02
1.181515899563507777e-01
9.760865312359930102e-02
8.423681484792211460e-02
7.541958080212442239e-02
7.318363547233719402e-02
1.050156846819193662e-01
6.584496993935939901e-02
1.222357699687123822e-01
1.009980717968736175e-01
7.531082252875015426e-02
5.348545758423503549e-02
5.092549861679042389e-02
5.137519749879956160e-02
1.151613163119830641e-01
5.444606281940977954e-02
3.986552962599144989e-02
9.441910436361156123e-02
3.430014284691060983e-02
1.008228143165566665e-01
9.984189977591217957e-02
5.846889843902743078e-02
4.317922508985552049e-02
9.646840694509513370e-02
7.669423132780522900e-02
6.395981267131846393e-02
9.692780382077863244e-02
4.985454875577517014e-02
1.205599307391221203e-01
4.819096284389016299e-02
7.289224134274827072e-02
9.129147843219490022e-02
2.990264353450048512e-02
3.968440829063539510e-02
7.886459219486904870e-02
4.980876592561021832e-02
9.694411492779315964e-02
1.438502084680860771e-01
2.672814447815101760e-02
1.052218310506918969e-01
1.961259805358735175e-02
3.717184825086961020e-02
9.860273587561910191e-02
1.247426389786790851e-01
9.646988065195796769e-02
1.310526328540633223e-01
4.987671362953392806e-02
8.006467218245935658e-02
9.004819305882898195e-02
5.427125730247698426e-02
1.028018783927060475e-01
6.618536315089883215e-02
9.770972222890322856e-02
5.938376267968983879e-02
4.590262746880016675e-02
1.080991462619958349e-01
1.151354413358188084e-01
1.030301194623167715e-01
1.079747519569646264e-01
1.022295144802387451e-01
1.025464088873851154e-01
7.278984801884585965e-02
3.150835682179296132e-02
9.290542566310590333e-02
9.723163953414507010e-02
2.868358366447592428e-02
1.034239517624278432e-01
7.677368922911399773e-02
7.210914563515725961e-02
1.217314429603675585e-01
9.098610805743219399e-02
3.619259102589266613e-02
1.347366091178756886e-01
7.657560534207158431e-02
7.927908080191227447e-02
7.785911770225270589e-02
9.679427871904501546e-02
4.742808904632108552e-02
1.211544395876932301e-01
8.508435567318330117e-02
1.207707285295374633e-01
1.223597570492041681e-01
5.939379052896585215e-02
6.850778469899604373e-02
3.598992923652603870e-02
9.674850972448889586e-02
3.999671849029117626e-02
8.805493170861243557e-02
5.603534990963669749e-02
1.170940571738277869e-01
2.868255701963379548e-02
9.231912620082538545e-02
9.703076415600429827e-02
3.591734257095325483e-02
8.227691887250707103e-02
6.324020643121824881e-02
8.423228910444337247e-02
8.010859598036601525e-02
6.831030560365242144e-02
8.139159223178800417e-02
1.512775958019782763e-01
5.437126202282559911e-02
7.035055329282348391e-02
1.330817120529018127e-01
4.512767985904972412e-02
5.444741625975205862e-02
1.225225497464490915e-01
4.870568753421689046e-02
